time,flux [mJy],error
0.0,4.8773807171649015e-27,0.009974423110754091
1.0,4.878455961245401e-27,0.04415608373767523
2.0,4.879333639497198e-27,0.009915433322799998
3.0,4.879943027104776e-27,0.06315447081509198
4.0,4.8803564396529075e-27,0.027781340512698767
5.0,4.880436259029122e-27,0.048497599149876974
6.0,4.8804899131188394e-27,0.006721953522568946
7.0,4.880176089823815e-27,0.02669455477077833
8.0,4.8794091612634804e-27,0.04215836410572292
9.0,4.878249461154758e-27,0.012929686621565345
10.0,4.876664448172017e-27,0.025071172036361694
11.0,4.875150929710173e-27,0.04598346086328811
12.0,4.87374087058583e-27,0.03397263084677438
13.0,4.872412833326971e-27,0.023385669173956184
14.0,4.870945051890083e-27,0.01790015289074746
15.0,4.869653847641607e-27,0.050238915544522644
16.0,4.8682077928171914e-27,0.021230250595577448
17.0,4.8663801936137934e-27,0.04445468579809457
18.0,4.864575873094963e-27,0.00937898934018102
19.0,4.862724746748139e-27,0.06840459297135534
20.0,4.861015102763482e-27,0.1246855166254842
21.0,4.859447934040385e-27,0.010325347723440154
22.0,4.8581945089397894e-27,0.017064992284978247
23.0,4.857024184156119e-27,0.04637732085272475
24.0,4.8557735724903335e-27,0.03199650099240741
25.0,4.854657074861915e-27,0.05163470862493156
26.0,4.853387120789753e-27,0.063157920298009
27.0,4.8518944240719366e-27,0.03528963204624219
28.0,4.85015917074415e-27,0.01066141172651541
29.0,4.848245598673135e-27,0.006749600896931485
30.0,4.846101065681336e-27,0.0038363956070926806
31.0,4.843514101839097e-27,0.0009011911339825636
32.0,4.840544215183283e-27,0.04583935995929493
33.0,4.836837030498302e-27,0.06482622949794163
34.0,4.832822802808289e-27,0.024984240676906633
35.0,4.828157905824729e-27,0.007618918324444288
36.0,4.822888945301449e-27,0.06797843644936935
37.0,4.817247212828573e-27,0.028082978734071225
38.0,4.811175437949539e-27,0.0646111658955064
39.0,4.8051899715967846e-27,0.010337230351184234
40.0,4.7989522697038525e-27,0.004777398404261152
41.0,4.792765798002705e-27,0.05204058845355136
42.0,4.786656102720191e-27,0.011300803982045957
43.0,4.780431714744726e-27,0.07604643145764153
44.0,4.774369370955384e-27,0.03925238307343733
45.0,4.768397529657749e-27,0.061644144705769614
46.0,4.762730216984152e-27,0.022889320779966593
47.0,4.757484385778363e-27,0.05447369528078497
48.0,4.753045112317259e-27,0.027106387201114357
49.0,4.749460236792244e-27,0.09094104988485271
50.0,4.7464920025902676e-27,0.02176525177796795
51.0,4.744079696891473e-27,0.052267080526066045
52.0,4.742382659903535e-27,0.04667320041561885
53.0,4.741301727736173e-27,0.0431303266745998
54.0,4.740806297889011e-27,0.05714397988326447
55.0,4.740405457458652e-27,0.02092063367525121
56.0,4.740200019871973e-27,0.04271267048471411
57.0,4.739952323023789e-27,0.013931172693832324
58.0,4.739741976247079e-27,0.1133370908048482
59.0,4.739480805235898e-27,0.0671145920565369
60.0,4.7393623614920164e-27,0.0018273711726673474
61.0,4.739355580390421e-27,0.03199883507974937
62.0,4.7396003953063554e-27,0.013826684472305884
63.0,4.739907798083842e-27,0.031203961721654384
64.0,4.740118127266582e-27,0.04709557180597783
65.0,4.7402141920958484e-27,0.06095158072143182
66.0,4.740198922192607e-27,0.04770256388547039
67.0,4.7401314247183725e-27,0.09074689875881878
68.0,4.740444979647055e-27,0.029400737063494567
69.0,4.740896583784128e-27,0.026145241257078823
70.0,4.741317465998975e-27,0.09117455694643306
71.0,4.741727913557946e-27,0.028993918042943045
72.0,4.742024057935237e-27,0.02009749380676858
73.0,4.742314847560044e-27,0.12353077627021017
74.0,4.742201464628858e-27,0.11038062995002221
75.0,4.7418760994116765e-27,0.003665423019881084
76.0,4.7413739087340196e-27,0.042453713829994154
77.0,4.740754073663767e-27,0.009488416999334448
78.0,4.739904648987203e-27,0.004540171951012161
79.0,4.7388788804286436e-27,0.06842199998405031
80.0,4.7374294391754176e-27,0.01964247273081421
81.0,4.735635121469316e-27,0.07546934690643593
82.0,4.7334579669121644e-27,0.046761731734469056
83.0,4.7310887610352885e-27,0.08409323061773863
84.0,4.728297228399765e-27,0.015280636105272197
85.0,4.725449024712349e-27,0.04932245444475542
86.0,4.722826426959603e-27,0.006336649424936125
87.0,4.7198904818216806e-27,0.17147789887615617
88.0,4.7170143525946324e-27,0.041899885728252095
89.0,4.714301700681046e-27,0.011822811135374445
90.0,4.7115566499955625e-27,0.000734348952635993
91.0,4.708785664597619e-27,0.014513580012144473
92.0,4.706012225542072e-27,0.01860520827421907
93.0,4.7031973156608274e-27,0.026109719424360158
94.0,4.7003211468497294e-27,0.005073482186202187
95.0,4.6970856955717916e-27,0.0009655779141134575
96.0,4.693942767322611e-27,0.007368371733247822
97.0,4.691006886975871e-27,0.07747232322281755
98.0,4.6880336078951654e-27,0.026995187526778854
99.0,4.684854950461142e-27,0.0012331430582634998
100.0,4.6817610364901065e-27,0.10358921008537372
101.0,4.678572858037055e-27,0.05364848853330069
102.0,4.6754008648859374e-27,0.059243286712493376
103.0,4.67218413752092e-27,0.021924034734224676
104.0,4.669134819532205e-27,0.06554297771677303
105.0,4.6663464771207096e-27,0.04076379066057885
106.0,4.663618639752364e-27,0.007063689004706825
107.0,4.6607600215306196e-27,0.07570564737612591
108.0,4.657588125675997e-27,0.008193428324910759
109.0,4.65439103919098e-27,0.04292843508723899
110.0,4.650853139444875e-27,0.05536169916907331
111.0,4.647045749811191e-27,0.04271770137113373
112.0,4.642957121331822e-27,0.053480739603967854
113.0,4.6387093605928676e-27,0.009811151761193368
114.0,4.633973254159e-27,0.005832611950173745
115.0,4.629076090509815e-27,0.021143035560036293
116.0,4.624162815741917e-27,0.01938240349226786
117.0,4.61926713774468e-27,0.014314413845505115
118.0,4.6143919659949175e-27,0.04858300269613362
119.0,4.6096576012153415e-27,0.0541222347466209
120.0,4.6051771706352e-27,0.025262329334307873
121.0,4.600353525679503e-27,0.002502089691779761
122.0,4.595923340237549e-27,0.05245595772405546
123.0,4.5917436277550256e-27,0.04284120213711818
124.0,4.5876653637471114e-27,0.03247566711036292
125.0,4.583709632567415e-27,0.018357628908496484
126.0,4.580033907696019e-27,0.0009320994687144779
127.0,4.576559160468143e-27,0.07579375608443707
128.0,4.572877066005947e-27,0.002293002043436154
129.0,4.569645401431641e-27,0.021588939195947447
130.0,4.566599884744965e-27,0.002754731445751459
131.0,4.5639875685571064e-27,0.04372493036871543
132.0,4.561562498116828e-27,0.008188614873842008
133.0,4.55972655681609e-27,0.05960643947947987
134.0,4.55833942351744e-27,0.028625447807718314
135.0,4.557467953983656e-27,0.08198475449351297
136.0,4.556779064251513e-27,0.009678054652950394
137.0,4.556588872949746e-27,0.0907089956755519
138.0,4.5568355567096194e-27,0.027622520388686563
139.0,4.5576659264042215e-27,0.0011242231664516655
140.0,4.5587572461350045e-27,0.08512949199249054
141.0,4.5600313740545375e-27,0.05969581704908618
142.0,4.56195031953647e-27,0.003059150257073446
143.0,4.56395919104049e-27,0.022788669505403467
144.0,4.566100263995523e-27,0.09026968923024324
145.0,4.5685630734274374e-27,0.005442195018091708
146.0,4.571183479118692e-27,0.06934673671478045
147.0,4.5740332607184446e-27,0.06778666998489287
148.0,4.576920659550828e-27,0.13288808460511406
149.0,4.579927539727435e-27,0.028105058492044307
150.0,4.5826901690770514e-27,0.07724979168054025
151.0,4.5856606425340606e-27,0.07173496601428758
152.0,4.588588833732786e-27,0.08372943828994
153.0,4.591336954377183e-27,0.03543522052282821
154.0,4.594107426809628e-27,0.05702897172993481
155.0,4.596711515818345e-27,0.042341055710323795
156.0,4.5989117120764556e-27,0.03129851323103874
157.0,4.600566314634928e-27,0.05006673317476589
158.0,4.6019624387808846e-27,0.04132448950245831
159.0,4.6030019329728885e-27,0.0005371218448908432
160.0,4.603724671281301e-27,0.0018875073804493028
161.0,4.604429636400956e-27,0.08179401752571301
162.0,4.604815720981211e-27,0.007961255146303225
163.0,4.604903624934647e-27,0.06457466169557617
164.0,4.604714904119685e-27,0.021339304641008805
165.0,4.604325621235641e-27,0.002957021292513477
166.0,4.603741277703196e-27,0.018811276023880483
167.0,4.602947098581807e-27,0.035019429219563886
168.0,4.6020087623564976e-27,0.015374672243998242
169.0,4.600951464981151e-27,0.10194986076733155
170.0,4.599670890321831e-27,0.05059676249817498
171.0,4.5981087398019795e-27,0.04113132409399607
172.0,4.59643616762884e-27,0.009821358464215267
173.0,4.5944635787039636e-27,0.03388064591051215
174.0,4.592093037114863e-27,0.09683178775870126
175.0,4.589433283865823e-27,0.013512958342762189
176.0,4.586534762410598e-27,0.039719471595303174
177.0,4.5839460137458104e-27,0.025807683705045978
178.0,4.5813331108874626e-27,0.04763769864372134
179.0,4.579044918728312e-27,0.007758225795357296
180.0,4.5771597136614296e-27,0.01849180563171666
181.0,4.575352030530734e-27,0.025650623340033752
182.0,4.5739003668373794e-27,0.08482282197883625
183.0,4.572429107392455e-27,0.020329038914708133
184.0,4.570486543484626e-27,0.06380186046602403
185.0,4.56846896687253e-27,0.0628384397403753
186.0,4.5659243818833544e-27,0.0048341715686677205
187.0,4.5631838976729906e-27,0.025381696931802575
188.0,4.560109201430059e-27,0.01894951029675905
189.0,4.557207450392989e-27,0.043576565008249114
190.0,4.554593028960945e-27,0.07760827474460795
191.0,4.552125387738759e-27,0.112696908596473
192.0,4.549757238442688e-27,0.05364305665546844
193.0,4.547311890569516e-27,0.061874501003430005
194.0,4.5448082592374804e-27,0.03064457190329302
195.0,4.542216194152439e-27,0.059720352739756434
196.0,4.539493076899376e-27,0.09533578505558074
197.0,4.5367444343829355e-27,0.08368844893240149
198.0,4.5341155104251116e-27,0.05909174605868427
199.0,4.531662077478909e-27,0.019495776730315353
200.0,4.5292269257740824e-27,0.02007269449908991
201.0,4.526617036487251e-27,0.02551990709953222
202.0,4.5242787380916895e-27,0.00826087856648098
203.0,4.5219074100365795e-27,0.09504537398323083
204.0,4.519466134322525e-27,0.012635893450903475
205.0,4.516939111290464e-27,0.1018756239140875
206.0,4.5140185775234185e-27,0.08167009471533998
207.0,4.510834718335224e-27,0.004954387066129454
208.0,4.5073654320671764e-27,0.011070715676581605
209.0,4.503845351620792e-27,0.062089636931885364
210.0,4.500421280005886e-27,0.07161355422672797
211.0,4.4970970722327135e-27,0.04055404871048898
212.0,4.4941374028803585e-27,0.031186781298202355
213.0,4.491544846622877e-27,0.04300148728397277
214.0,4.489291625800452e-27,0.048109786334810285
215.0,4.487399709286196e-27,0.007349924739674838
216.0,4.4857783878841876e-27,0.03975507054120785
217.0,4.484329561844405e-27,0.061759909852020324
218.0,4.4830049460425224e-27,0.015944333272849463
219.0,4.481569802013767e-27,0.052204521017657636
220.0,4.480192887026399e-27,0.04823467811028008
221.0,4.47862517979669e-27,0.021145517454056947
222.0,4.4771684417137885e-27,0.024823613556961457
223.0,4.4756945531420876e-27,0.00765665883928093
224.0,4.474278118238605e-27,0.13985769370483345
225.0,4.473044708901695e-27,0.01639322060350112
226.0,4.472092007305214e-27,0.02650322379482281
227.0,4.4710312589886676e-27,0.056910717945986844
228.0,4.4699961198936845e-27,0.06396981225136887
229.0,4.4691703842486454e-27,0.012655580289924135
230.0,4.4680912335140075e-27,0.04191551388747171
231.0,4.4670393805343834e-27,0.10073852912346498
232.0,4.465504440400027e-27,0.03073795584859672
233.0,4.463548981054427e-27,0.01250686065518384
234.0,4.461314598252347e-27,0.08399077977669292
235.0,4.458497274530404e-27,0.05839766587970217
236.0,4.455155632544265e-27,0.09552497491128717
237.0,4.451175891032663e-27,0.036675113296915605
238.0,4.447162744718822e-27,0.031214783252034414
239.0,4.443067387023579e-27,0.009986209429048896
240.0,4.439111746218221e-27,0.03290430106428959
241.0,4.435284521122683e-27,0.1771901600180295
242.0,4.4316011154167234e-27,0.11151131258650687
243.0,4.4277886340067076e-27,0.01311994020600372
244.0,4.4239726707673494e-27,0.021318342267777873
245.0,4.4200219414566214e-27,0.025811440486351003
246.0,4.416223060296348e-27,0.0455805975825142
247.0,4.412755335464274e-27,0.03768900466679506
248.0,4.4098550246146456e-27,0.04073782158213848
249.0,4.4075843763932424e-27,0.10137608588987282
250.0,4.405740986066133e-27,0.05234585242586818
251.0,4.4041340107969926e-27,0.0022382413943923154
252.0,4.402980700328744e-27,0.020333358082972024
253.0,4.40219112756634e-27,0.07287147745583003
254.0,4.4013097883227844e-27,0.027557155992440897
255.0,4.40058129826947e-27,0.005322644492033367
256.0,4.400107056560602e-27,0.11043083326350792
257.0,4.399801451549883e-27,0.051344700515858877
258.0,4.3996259236700315e-27,0.03288872338297749
259.0,4.399431519294001e-27,0.007763630659142927
260.0,4.398995677421952e-27,0.0032653880333878174
261.0,4.398629117500452e-27,0.041547942560682005
262.0,4.398168097541873e-27,0.013600571564586071
263.0,4.3976239027511884e-27,0.021240619511958974
264.0,4.3974149004378815e-27,0.02260631399539717
265.0,4.397518232181706e-27,0.091063498535632
266.0,4.397963428486239e-27,0.013552746203915056
267.0,4.398739126980091e-27,0.13368901371877617
268.0,4.400117383083073e-27,0.043138223822759496
269.0,4.402235633801243e-27,0.0207028840382769
270.0,4.405040286773831e-27,0.036526746025814245
271.0,4.408484275727936e-27,0.055047887705247614
272.0,4.411975048540027e-27,0.00202936381039272
273.0,4.415663399377073e-27,0.08634085259785595
274.0,4.4193813807099056e-27,0.04889014236771342
275.0,4.423076075678555e-27,0.016166170406493232
276.0,4.426885291497017e-27,0.05804326510207091
277.0,4.4301138821337326e-27,0.0005316189201568986
278.0,4.432951314355851e-27,0.001069202002192365
279.0,4.435499754149673e-27,0.026686030076911862
280.0,4.437638400588976e-27,0.026518402209866718
281.0,4.4391646828064e-27,0.09048503730935946
282.0,4.440469447058155e-27,0.053320356115012624
283.0,4.441563953949244e-27,0.0010045790063187667
284.0,4.4422830377963016e-27,0.0404612949850556
285.0,4.442862539307434e-27,0.03208901544538161
286.0,4.443481935850058e-27,0.011235347002423662
287.0,4.444085428582807e-27,0.013637482526230541
288.0,4.444870690832538e-27,0.0008680182065514092
289.0,4.445777604113192e-27,0.053563439960959906
290.0,4.4467193466471405e-27,0.011256294504127445
291.0,4.447486433576696e-27,0.0023569722637581964
292.0,4.448168637285192e-27,0.002219823082190518
293.0,4.448793122248222e-27,0.036509635039358605
294.0,4.449518892835636e-27,0.016638310998188844
295.0,4.450241746298127e-27,0.008349467800582043
296.0,4.451098911933377e-27,0.004502414672746074
297.0,4.451849183582537e-27,0.009395116687190633
298.0,4.4524385070576575e-27,0.057568660660352704
299.0,4.452914171947928e-27,0.018081385740368213
300.0,4.453057231338567e-27,0.08291600740925757
301.0,4.453166165082564e-27,0.009487502102647333
302.0,4.4532683703180434e-27,0.10254511582931952
303.0,4.453415782340031e-27,0.0719568383893496
304.0,4.453689982056558e-27,0.017998494952620226
305.0,4.454497335457494e-27,0.03495451169357581
306.0,4.45551429329633e-27,0.06745517128096896
307.0,4.456324910467455e-27,0.05448965978746234
308.0,4.457174141976962e-27,0.10353038229530409
309.0,4.457968259698748e-27,0.03556002248349804
310.0,4.458577992659313e-27,0.0018753361814956371
311.0,4.458861423233756e-27,0.03201869770124902
312.0,4.458856513510059e-27,0.020298298645769465
313.0,4.458676201993546e-27,0.03235081955632015
314.0,4.4582324924959896e-27,0.09251574807840104
315.0,4.458135109743686e-27,0.08424619407427558
316.0,4.45795904586724e-27,0.0653292245895966
317.0,4.457699246221738e-27,0.053334577747901624
318.0,4.4569781087900035e-27,0.04973219250131173
319.0,4.456096874807784e-27,0.03154865737069133
320.0,4.454595431307137e-27,0.0124069444448326
321.0,4.452622378364369e-27,0.030093819605153962
322.0,4.4502338622859594e-27,0.10637264981909123
323.0,4.4473992718010185e-27,0.02362918969987704
324.0,4.4446600207667105e-27,0.06693548513287688
325.0,4.44212740955835e-27,0.01810098701491641
326.0,4.44006228789474e-27,0.020696229861171866
327.0,4.4381952045862986e-27,0.029003644801721514
328.0,4.4368784984823854e-27,0.004711703544606374
329.0,4.436054183611275e-27,0.016049506695316858
330.0,4.4357840868685726e-27,0.00444692581754448
331.0,4.4361453148497176e-27,0.057061441209470945
332.0,4.436779263292303e-27,0.11643152543384422
333.0,4.437638032900837e-27,0.1009011469815349
334.0,4.4388693796017444e-27,0.036795528676511355
335.0,4.439750029868473e-27,0.021806451598849586
336.0,4.440849656168828e-27,0.019679954985951608
337.0,4.442068736009967e-27,0.049626668698740384
338.0,4.443338067807927e-27,0.025605331183495894
339.0,4.444720409733242e-27,0.052769452510910635
340.0,4.4459766720871186e-27,0.000884767053026633
341.0,4.447140692760142e-27,0.10905378040816693
342.0,4.4484584811011376e-27,0.023112265067686304
343.0,4.450063676833017e-27,0.012702638223556814
344.0,4.452382661171218e-27,0.037983245850625645
345.0,4.455100325528541e-27,0.002906660838820937
346.0,4.4580783262833734e-27,0.08973595770636116
347.0,4.461214405216932e-27,0.051352480276624105
348.0,4.464252686996795e-27,0.061606124333172085
349.0,4.46719595309979e-27,0.01844654417161719
350.0,4.470064810484678e-27,0.03119434529066897
351.0,4.472787007082663e-27,0.00863603190193374
352.0,4.475605712812043e-27,0.14423732774295536
353.0,4.478365141911144e-27,0.013102653001292092
354.0,4.4810377409225466e-27,0.04744827008125704
355.0,4.4835331537374455e-27,0.018913181191977615
356.0,4.485556150454298e-27,0.012633995449404198
357.0,4.486945344959601e-27,0.05470039818758966
358.0,4.48762574756521e-27,0.052001853460194564
359.0,4.488031040830568e-27,0.022695514729889572
360.0,4.488270021809313e-27,0.07452136277744197
361.0,4.4886345266006365e-27,0.017636126064821036
362.0,4.488788211090298e-27,0.06313086143590169
363.0,4.488531183999272e-27,0.04335285817157494
364.0,4.487951764067515e-27,0.016668324291149946
365.0,4.487148063447376e-27,0.01865014797508097
366.0,4.486219600330061e-27,0.010129523313976384
367.0,4.485382925739006e-27,0.01663123240781821
368.0,4.484647637869142e-27,0.06485823458376035
369.0,4.484405208803329e-27,0.04827997455061736
370.0,4.4844374547338754e-27,0.006895147138224519
371.0,4.484578771950068e-27,0.035514324023971665
372.0,4.484540017964315e-27,0.04459405206458125
373.0,4.484265286768653e-27,0.04985273725485312
374.0,4.483855736973647e-27,0.07115402575064579
375.0,4.483091955544664e-27,0.04081059337834303
376.0,4.482308385607565e-27,0.038881079083329086
377.0,4.481747505037933e-27,0.009845714739403792
378.0,4.4808173234291594e-27,0.06587037354624237
379.0,4.4800129582968624e-27,0.029220550481396004
380.0,4.4787700500823806e-27,0.1233672224535801
381.0,4.477436654342583e-27,0.025835086584596073
382.0,4.476228279571885e-27,0.034030688100921185
383.0,4.4750590650810566e-27,0.05741775022498124
384.0,4.473709851561093e-27,0.05200946884296401
385.0,4.4722372609757666e-27,0.08728125879060256
386.0,4.470660345179084e-27,0.08423430688966356
387.0,4.468979619591543e-27,0.0531109168227247
388.0,4.467192454258301e-27,0.0037777529422797296
389.0,4.465336399370351e-27,0.030256724571000572
390.0,4.463508291374437e-27,0.07299919916664932
391.0,4.4614723057501056e-27,0.09118113998716376
392.0,4.459350333649783e-27,0.004605981609104605
393.0,4.4575065269912984e-27,0.016787666812560827
394.0,4.455716225289114e-27,0.029670099281783352
395.0,4.453967920222466e-27,0.018653032529852658
396.0,4.4525545335036535e-27,0.004114285542455776
397.0,4.450825280329611e-27,0.033262662306527205
398.0,4.4493197631012015e-27,0.04736525032589685
399.0,4.4477570685085565e-27,0.005382016968847748
400.0,4.4462552606021044e-27,0.005913335245417648
401.0,4.444828670513707e-27,0.08234731999913347
402.0,4.443683181680672e-27,0.05449588074155516
403.0,4.442676511605652e-27,0.03578436921220631
404.0,4.4417131589169886e-27,0.029307960252580097
405.0,4.4411346125156494e-27,0.04025137922959304
406.0,4.4402850159974746e-27,0.08997160574566522
407.0,4.439424310745568e-27,0.02929358950549002
408.0,4.4382463256407866e-27,0.05976651349262783
409.0,4.436746383275401e-27,0.042960637841134686
410.0,4.435450097642027e-27,0.02704557810137749
411.0,4.4341664341584656e-27,0.029308717339744862
