time,flux,error
0.0,0.9978932673296316,0.029595405673619696
1.0,0.9990653955422705,0.015290127223781314
2.0,0.999829686275364,0.04649386188903927
3.0,1.0,0.04876373973053234
4.0,0.9997556214840051,0.009285226216244448
5.0,0.9987524254683209,0.019513397545979805
6.0,0.9977906846131452,0.1239172906508722
7.0,0.9960132422087986,0.031082905609435874
8.0,0.9932221060048099,0.04070180787859118
9.0,0.9895969931867113,0.02661881495944915
10.0,0.985080192553213,0.006102038768633482
11.0,0.9809632442378351,0.00955942134626579
12.0,0.9773362126620254,0.04847507771286093
13.0,0.9741362854428042,0.08553678750853927
14.0,0.9707718008928593,0.041662471268120775
15.0,0.96802259889398,0.05079016702594863
16.0,0.9650168231703651,0.06784424791437037
17.0,0.9611669713306943,0.01601090612227505
18.0,0.957513122229846,0.02124811317550171
19.0,0.9538781948418487,0.052679266661060375
20.0,0.9507435751333099,0.0032427425275349756
21.0,0.9480888044790008,0.05603123932854746
22.0,0.9463107099655373,0.06656744418192174
23.0,0.9447784762360306,0.013801897052213003
24.0,0.9430442670678302,0.043301180591495715
25.0,0.9416436303715986,0.011776202195487279
26.0,0.9398417147566458,0.05529796715490475
27.0,0.9374731569186895,0.05259248369790703
28.0,0.9344946485492053,0.04455893155222472
29.0,0.9310862033757403,0.0237777627265702
30.0,0.9271348198378141,0.023749640141235418
31.0,0.922126121339662,0.043093974310948094
32.0,0.9162422578303092,0.042666437155670006
33.0,0.9086157450372715,0.0008226907596897008
34.0,0.9003933485464763,0.007177207920844447
35.0,0.8907416019199214,0.014824399556692347
36.0,0.8798280979266487,0.06011633765277779
37.0,0.8682906574987743,0.0036025175602733012
38.0,0.8560130327384148,0.04742192959677513
39.0,0.8443298680104157,0.012505945623682388
40.0,0.8323716529219114,0.032082422758097466
41.0,0.8208953004886327,0.03878913590603717
42.0,0.8099348052497363,0.03886895094657909
43.0,0.7989702595954713,0.013611452927690794
44.0,0.7886776297650829,0.052613348988868526
45.0,0.7788422629866528,0.026666727877173304
46.0,0.769973454332866,0.09263193615830646
47.0,0.7623157881417177,0.01626432897202944
48.0,0.7567890630190534,0.05477801726425006
49.0,0.7534253725928018,0.07815577929909923
50.0,0.751523950987382,0.03368217843217637
51.0,0.7508413618925854,0.00981104584768979
52.0,0.7517043394666902,0.0032521497236040553
53.0,0.753807530235031,0.07946235203937387
54.0,0.7570212247511878,0.11435756171669811
55.0,0.7600606894969751,0.02964359806725142
56.0,0.7631657792912936,0.02834701880203848
57.0,0.7657315940106917,0.011522251270455561
58.0,0.7679859033518807,0.024428367831301864
59.0,0.7697375478767022,0.10130476872042796
60.0,0.7715228599170785,0.02808197254012751
61.0,0.7732951479479921,0.06362513996773711
62.0,0.7754337495356803,0.06299329510595335
63.0,0.7774748472524611,0.03604707377084534
64.0,0.7790286312475448,0.042491796455476794
65.0,0.7800824583278846,0.08434728271943524
66.0,0.7806807260657278,0.07267911861938643
67.0,0.7810188692440089,0.031629091201142316
68.0,0.7822334242805437,0.04184214266032797
69.0,0.7837095282625844,0.003642840983394745
70.0,0.7850100454987918,0.044172872160992145
71.0,0.7861847807667757,0.06618549658593531
72.0,0.7869783756774228,0.07922810710405631
73.0,0.7876901588267871,0.07184884917563793
74.0,0.7873313294135729,0.009420248426240757
75.0,0.786421054316643,0.015662711616775488
76.0,0.7850765525715805,0.06730891460625658
77.0,0.7834711998756524,0.009570989034454924
78.0,0.7813356624417972,0.05067955277505223
79.0,0.7788256861235179,0.020301265745375725
80.0,0.7753332421693052,0.04126348018107148
81.0,0.7710860975932978,0.027791314009762026
82.0,0.7660223549965357,0.0554571070136424
83.0,0.7606549985163699,0.056030611610483554
84.0,0.7544236502094127,0.12383754296006766
85.0,0.7482761398508467,0.028216296143443273
86.0,0.7429330074081056,0.04578677883455918
87.0,0.7370113582185145,0.025010269730352943
88.0,0.7314486591680877,0.03954077159189616
89.0,0.7264859081973052,0.041372366907592356
90.0,0.721597378052463,0.08846380986548075
91.0,0.7167806945402909,0.03570664893104149
92.0,0.7120808695530649,0.021880199187100366
93.0,0.7073813088165442,0.06610569699965235
94.0,0.7026214726254885,0.005963999921158417
95.0,0.6970341179378209,0.00993189758237992
96.0,0.6917676867645883,0.032144814117615
97.0,0.6871139577971579,0.04012165153246215
98.0,0.6824327181538998,0.03266354428555791
99.0,0.6772806266648893,0.030248941985979796
100.0,0.6723926750589635,0.061480932403005444
101.0,0.6673055415757597,0.03187578108877414
102.0,0.6623029529538863,0.0479113084095026
103.0,0.6572321390854633,0.09910858708815963
104.0,0.6526302974917083,0.04679071717992089
105.0,0.6487269476305167,0.044730674807675584
106.0,0.6449821470913687,0.004568572121232295
107.0,0.6408882471746021,0.03373966332904677
108.0,0.635980522458016,0.05261552603712372
109.0,0.6310075112365892,0.0032673989060213217
110.0,0.6251862461796756,0.03617469194519362
111.0,0.6187299798710164,0.007532776902225834
112.0,0.6116356127826122,0.012819869452009788
113.0,0.604231892519815,0.0321144089623258
114.0,0.5956956047502313,0.10992469283795255
115.0,0.586883860606615,0.00711534249742383
116.0,0.5781905348836589,0.06994361406602395
117.0,0.5697090571703866,0.045498047830972506
118.0,0.5614435524520659,0.02152683448829959
119.0,0.5536820563835485,0.00279257502159451
120.0,0.5466867451455805,0.060598541124407525
121.0,0.5389116018683505,0.024526770312047617
122.0,0.5322175548098292,0.020840125433503373
123.0,0.5262204985239259,0.055636066925797804
124.0,0.5205171878175542,0.01372065400020254
125.0,0.51513471258824,0.04502852208525432
126.0,0.5104399104644484,0.012125250699450866
127.0,0.5062000046388059,0.048263698215017886
128.0,0.5013566688868976,0.007754665084102522
129.0,0.4975788396434362,0.13707375119448167
130.0,0.49417979691506203,0.13558885974457385
131.0,0.4917749061530939,0.07094521232593412
132.0,0.4897081449891852,0.051569549113531746
133.0,0.4889668391102392,0.07215136791124949
134.0,0.48916206483343155,0.017475537022537967
135.0,0.4904260653383469,0.008002181084454107
136.0,0.4918839680196216,0.0248558609444956
137.0,0.49432230111583625,0.032832314030462155
138.0,0.49756885297076814,0.08755680214754004
139.0,0.5019717348336343,0.1308398233852572
140.0,0.506682875358111,0.084319988400187
141.0,0.5114919879069235,0.04281171957087255
142.0,0.5175681050861877,0.04507435436963242
143.0,0.5234916866661053,0.02645558801958144
144.0,0.5293741575890769,0.002419418518446948
145.0,0.5357140130157407,0.07724649449952956
146.0,0.5421018430592568,0.12970589593721327
147.0,0.5487321913635846,0.05749270937898737
148.0,0.555135080723506,0.040654842629519565
149.0,0.5615381348174977,0.04545633047807784
150.0,0.5670427911741917,0.08969294462563752
151.0,0.5728344465315194,0.09966331633732715
152.0,0.5783036106575995,0.007417216337622644
153.0,0.5831343327628978,0.02836717429933059
154.0,0.5878768740151845,0.018183048552804143
155.0,0.5920714154135892,0.070756280573793
156.0,0.595150220093167,0.04957189281964251
157.0,0.5967988549107724,0.01663972219421121
158.0,0.597805962466775,0.03682993664552771
159.0,0.5979731373191458,0.05620850701796573
160.0,0.5974479654811634,0.016255117155181412
161.0,0.5970262084128001,0.005630482965022233
162.0,0.5959528165095214,0.05203587953497241
163.0,0.59429787678107,0.013220019530854332
164.0,0.5921274648970343,0.06064503252054239
165.0,0.5896553852193563,0.03236116748048905
166.0,0.5869137336741196,0.10131900711600333
167.0,0.5838751822858758,0.010278186152352388
168.0,0.5807059330930948,0.05779294370973906
169.0,0.5774628063144858,0.027847257015325512
170.0,0.5738753487465152,0.05163674446897581
171.0,0.5697872655485539,0.1479164478104822
172.0,0.5656382491552445,0.0034535906963527666
173.0,0.5609477072565624,0.008483715891321223
174.0,0.555470477233907,0.014006147663162292
175.0,0.5494930580741738,0.006085511284989951
176.0,0.5431480029726818,0.08295501951000847
177.0,0.537834738144089,0.05020977759347657
178.0,0.532683765172985,0.03872594992681824
179.0,0.5285539972351657,0.02285775773810477
180.0,0.5256015200489967,0.01008053216722373
181.0,0.5229410058522749,0.03270043056527376
182.0,0.5212342808849532,0.03003384416181632
183.0,0.5194860343212863,0.030288799002322293
184.0,0.516530075388131,0.12494772978460128
185.0,0.5133861011121018,0.021947500324472062
186.0,0.5089237096089826,0.05783496408537865
187.0,0.5040133208344162,0.011225979088415569
188.0,0.4983331883949652,0.00964393732485415
189.0,0.49319033728262546,0.05065139764781921
190.0,0.4888701383003036,0.1433938081355952
191.0,0.4850013883468633,0.17100382504663975
192.0,0.48143317483131604,0.055095382822190966
193.0,0.47769302609857767,0.039841360043495984
194.0,0.4738236562215801,0.015844137394671113
195.0,0.46974684398417704,0.04616035966053845
196.0,0.4653727469960092,0.07987601112668676
197.0,0.46097891597468954,0.023832740224007897
198.0,0.45693576224824994,0.0061382038599970875
199.0,0.4533731980220532,0.07516503991272765
200.0,0.44986721267602836,0.005227825367590217
201.0,0.4459191548429574,0.029544111503504
202.0,0.4426598160640614,0.07060117943479842
203.0,0.43930874583225893,0.016718736153523726
204.0,0.43577291653124367,0.034698582239806104
205.0,0.4320128980957738,0.06569461439184086
206.0,0.42724997736381026,0.08791258366869895
207.0,0.42183273859186154,0.1047412656332772
208.0,0.4157345354811361,0.01933800167021538
209.0,0.4095836559058865,0.07440892312781154
210.0,0.4037733178114202,0.013073970488630814
211.0,0.39831289912443885,0.0504840174377704
212.0,0.3938539284251295,0.04144269160890793
213.0,0.3903720976715954,0.056214459012055996
214.0,0.38775715542570216,0.04466265998280061
215.0,0.38602379211713284,0.03690727239591111
216.0,0.3849061580796478,0.07851149304388044
217.0,0.3841235753598447,0.031838631330906766
218.0,0.38353111282513086,0.05195457136304097
219.0,0.3825167458956287,0.03299799787294868
220.0,0.3815069673049946,0.00925935736851666
221.0,0.37988103100816367,0.012205421619312939
222.0,0.37842395983247834,0.009374559064260025
223.0,0.37682565765738174,0.011495622231693073
224.0,0.37528555727710144,0.002788079206590571
225.0,0.3741231635195519,0.064422125274029
226.0,0.3735807343806535,0.02453057642765663
227.0,0.37265975239624793,0.05324338810165313
228.0,0.37170480495770397,0.03749086155091912
229.0,0.37119332163504987,0.06750991998807651
230.0,0.36995283188184336,0.06308347435328931
231.0,0.36871667677976877,0.04571950648661469
232.0,0.3662026231962483,0.006076010060222471
233.0,0.36260024362205034,0.00870010474124857
234.0,0.358316750624795,0.04149845523899448
235.0,0.3526206212550511,0.0671909031895696
236.0,0.3457132137930149,0.034484859308045616
237.0,0.3373592330543326,0.014948350646363942
238.0,0.32914264239619473,0.046522615983828064
239.0,0.32096194716128057,0.10628647390003856
240.0,0.31338899912593443,0.015956063096238825
241.0,0.30637443972022665,0.04900191618799282
242.0,0.29992513721171,0.04980699527576137
243.0,0.2933159200998737,0.017166682530020384
244.0,0.2868422495650755,0.045258627041917465
245.0,0.28016383141454454,0.02619365100693017
246.0,0.27399915329720675,0.00940349328772385
247.0,0.26878850556660466,0.11213431877857268
248.0,0.2650950752381567,0.018555988774568374
249.0,0.26301544333706717,0.021075941706958534
250.0,0.26196379056513364,0.09632032033973285
251.0,0.26138184065194986,0.04492905728497079
252.0,0.2617776694182463,0.048620190981598276
253.0,0.2628909047419468,0.04862003269422269
254.0,0.2635423823275639,0.029815607644075093
255.0,0.26435225517118904,0.006569084659948728
256.0,0.26557439753717854,0.04604033876033214
257.0,0.26698729739782734,0.0036561115794352993
258.0,0.2684941981536202,0.05297682303617891
259.0,0.2697200277026808,0.0899342755374945
260.0,0.2701139687440778,0.07225946391724801
261.0,0.270498699353125,0.08314442902942157
262.0,0.2704847417148616,0.005159524087194211
263.0,0.27013197980930315,0.09443358048799472
264.0,0.27053368838586356,0.10539748691281425
265.0,0.27163265873389875,0.002182878391310647
266.0,0.2734933845234216,0.08081581108205309
267.0,0.27606944416522033,0.03744626208348474
268.0,0.28002335712713594,0.054096512418644355
269.0,0.2856647991336698,0.03215999815257228
270.0,0.2928100251174061,0.13020617626384323
271.0,0.30128762169417905,0.10527327049002935
272.0,0.30954675133447135,0.006142283590613941
273.0,0.3179503703590751,0.06722612836005763
274.0,0.32606819237277185,0.013704779348402037
275.0,0.33378562596395944,0.04030986244039533
276.0,0.34148551427507895,0.03718913089665515
277.0,0.3474287695606653,0.05606280298371337
278.0,0.3521460545534375,0.05296939418541455
279.0,0.355954449919311,0.03732667975972439
280.0,0.35861194210755043,0.0317565820702736
281.0,0.35967280880611935,0.006297551164481635
282.0,0.36020725519979735,0.03734454615189614
283.0,0.36030004361612994,0.046389670496306004
284.0,0.35957052600880307,0.033115411572672275
285.0,0.3586526285407911,0.047477128639943855
286.0,0.35801120354383015,0.016563108365807752
287.0,0.35751279388007323,0.015780477490064792
288.0,0.3576585814866798,0.0031098959333531275
289.0,0.35827941495674015,0.01435540359449363
290.0,0.3591327115171856,0.027539169039805623
291.0,0.3596566263206754,0.03735839979829113
292.0,0.3600609989898465,0.009590697581280436
293.0,0.3604077322246317,0.05283466960618294
294.0,0.36110428555167456,0.019272548990055843
295.0,0.3618767646966494,0.04547082971204189
296.0,0.36305361787407225,0.01634973705491349
297.0,0.363998336541731,0.08014661918141161
298.0,0.3645568881711445,0.06719697552796676
299.0,0.364850756367406,0.05350133473275991
300.0,0.36433497691878264,0.04352069375808122
301.0,0.36379545133611046,0.0879255343265948
302.0,0.3633172942515475,0.0434902711327432
303.0,0.3630316911513807,0.008071462112664352
304.0,0.36313635393102445,0.10918168505813236
305.0,0.3646428919046164,0.02287787345038617
306.0,0.36669183932784777,0.019186382626286008
307.0,0.3681967007503279,0.03968017641173528
308.0,0.3697732529090526,0.037877693899458144
309.0,0.3711782036154353,0.035982496222874326
310.0,0.37209184098784637,0.019967573774949048
311.0,0.37216891175044226,0.05560055761244548
312.0,0.37152852653537455,0.12042292541753526
313.0,0.3704857558484682,0.05872330112215182
314.0,0.36883885830422675,0.03321289562529697
315.0,0.3681549187643022,0.009009336736612725
316.0,0.36734677600041854,0.05547768623216427
317.0,0.3663949271736291,0.09041343668788811
318.0,0.3643347107664615,0.028923797751098174
319.0,0.36194859818873565,0.03517335403207982
320.0,0.35809712967255203,0.00023731561018707924
321.0,0.3532005226061944,0.09821952012745885
322.0,0.3474463508462103,0.030513835398946233
323.0,0.3407904964793764,0.10037188392852177
324.0,0.33464214647903573,0.003817325043918935
325.0,0.3292770069843762,0.012878680110699531
326.0,0.32532749935953603,0.09384037306451798
327.0,0.3220587422629804,0.061941687144482074
328.0,0.32031142947142394,0.03781871314534453
329.0,0.31987875659566545,0.02672938431903092
330.0,0.3208552205631281,0.042373889902716705
331.0,0.32337331765685096,0.0005236207190889528
332.0,0.32644790450547584,0.002803133278461472
333.0,0.3299076644409174,0.01127287058237375
334.0,0.3340932073755638,0.036714237335282535
335.0,0.33714335230261716,0.009115631505349294
336.0,0.3405165964184667,0.04705180508015249
337.0,0.34396860696710146,0.0080782747432944
338.0,0.34733286390717993,0.0505589942608348
339.0,0.35077936630701073,0.04510215923979067
340.0,0.3537104151580848,0.06480328078260532
341.0,0.35622558737051874,0.026051514250166188
342.0,0.3589759007925679,0.00305682506200747
343.0,0.3623213086704261,0.005008408995070789
344.0,0.36734719799409804,0.03652541009086037
345.0,0.373236554141895,0.026334985478004787
346.0,0.379595677943648,0.031557873425546494
347.0,0.3861355628242337,0.00835626870343934
348.0,0.3921980766955052,0.07018639744506276
349.0,0.39780577165168884,0.012216755946133858
350.0,0.40304967135653014,0.06258805322888249
351.0,0.4077789579471272,0.032109194753875345
352.0,0.41263812318461635,0.07230916215748162
353.0,0.41724331986482854,0.011342505728435258
354.0,0.42152548291681097,0.001999224224814359
355.0,0.4252727082461499,0.03973438575948094
356.0,0.42776471900876345,0.0636061788295018
357.0,0.4286401766845722,0.06338156715756037
358.0,0.42777884561398916,0.01567299641327421
359.0,0.4263504970368754,0.01814853688815387
360.0,0.42468085581023357,0.029374389240243926
361.0,0.4235391331841479,0.06897614850565802
362.0,0.422069411930737,0.10114211141471337
363.0,0.4197618832331042,0.05371421327092938
364.0,0.4168499838219059,0.03898303037892034
365.0,0.41359461862980135,0.09466568740200237
366.0,0.4102683169176813,0.09740670595346819
367.0,0.40742843199361994,0.03616078750681588
368.0,0.40508676610339633,0.03228650424248334
369.0,0.40420380300839737,0.05496269717359014
370.0,0.4041662768703806,0.06301287499739247
371.0,0.40449202281024954,0.06086678353454501
372.0,0.40440129564673394,0.016127626870909403
373.0,0.40373776070627315,0.04036380568105469
374.0,0.4027659415024568,0.09524137151017194
375.0,0.4009451824504471,0.010466747856874079
376.0,0.39914446245488694,0.004803930730957401
377.0,0.3979812273071075,0.07648716803301106
378.0,0.3959389117559856,0.1068143683997555
379.0,0.3942761320447989,0.08039243778587907
380.0,0.3915588089781147,0.00041828684828443307
381.0,0.3886850143760635,0.02433190272409741
382.0,0.3862155094911248,0.019504811428551306
383.0,0.3839324269625321,0.09817852636092628
384.0,0.3812742988600021,0.019628644497261396
385.0,0.37838873714016336,0.046384963936868064
386.0,0.3753229890356104,0.04740433930806201
387.0,0.37207864480597447,0.022422994028958223
388.0,0.36866167291884905,0.012670110964113343
389.0,0.3651657867792509,0.055668458273481526
390.0,0.36183741520254376,0.020091535176004358
391.0,0.35807101375486755,0.055529437035849366
392.0,0.3541701300659333,0.0034854304046086715
393.0,0.3510649930358273,0.000653929339109825
394.0,0.3481686772967364,0.06355658077206981
395.0,0.34543967323915814,0.02360046367298928
396.0,0.3436057918059531,0.030466427744644167
397.0,0.3409820013468033,0.01907543124798663
398.0,0.3389302173294831,0.012969272913839975
399.0,0.3367219145056452,0.03434153187449931
400.0,0.33465442108342847,0.014914913843950354
401.0,0.3327723229540329,0.05444373147334089
402.0,0.3315956439456528,0.0017831882112595036
403.0,0.33073952513141525,0.038842173438123406
404.0,0.329939964407254,0.04451364954302479
405.0,0.33004625259126064,0.03800227081367305
406.0,0.32936700576545125,0.021090591933565682
407.0,0.32857695009752785,0.01972764913649943
408.0,0.3269101869360389,0.08518351627178916
409.0,0.32438318018885864,0.030193687889609973
410.0,0.3223663342623383,0.03244826251394726
411.0,0.3203812307355423,0.03997644232351609
412.0,0.3187291080122888,0.013488288027128065
413.0,0.31651907568666093,0.01271462670806651
414.0,0.31392183933196527,0.008180942116419876
415.0,0.31123717023777414,0.08371365288564041
416.0,0.3086188260079081,0.062153949235134814
417.0,0.3063810302725868,0.06234984113363286
418.0,0.30446098734079224,0.015622737703789462
419.0,0.3032211008782459,0.009076094812312452
420.0,0.30276355735201277,0.05320062559729505
421.0,0.30195719407348287,0.09087138324792154
422.0,0.3012925411848602,0.006047524539397945
423.0,0.3010705536280561,0.01199548627255708
424.0,0.3013467038183644,0.10115447503562106
425.0,0.30177165271224377,0.05508410520728401
426.0,0.3020421457586592,0.07344505980967068
427.0,0.30177783379834944,0.008963673514810581
428.0,0.3011973803448154,0.005259238608750038
429.0,0.30092967854171,0.029707047517794433
430.0,0.29966887680451204,0.005543837346453197
431.0,0.29774729156051444,0.028653553100280622
432.0,0.2948313591363759,0.06239811191170616
433.0,0.2917735593186193,0.051186958762318324
434.0,0.28819236137982807,0.06744255517638173
435.0,0.2841928757739357,0.05922990914908319
436.0,0.2799714875280401,0.017903700405923244
437.0,0.2759722704394047,0.04625319371090732
438.0,0.27197978557436575,0.011151370619242247
439.0,0.2666077190014988,0.006513175211467859
440.0,0.2611193001721699,0.03414254141033378
