time,flux [mJy],error
0.0,3.395041694460887e-27,0.009974423110754091
1.0,3.397676062705336e-27,0.04415608373767523
2.0,3.3998263909492306e-27,0.009915433322799998
3.0,3.401319402062778e-27,0.06315447081509198
4.0,3.402332270590405e-27,0.027781340512698767
5.0,3.402527829565158e-27,0.048497599149876974
6.0,3.402659283095291e-27,0.006721953522568946
7.0,3.4018904101130785e-27,0.02669455477077833
8.0,3.400011420698722e-27,0.04215836410572292
9.0,3.397170133594791e-27,0.012929686621565345
10.0,3.393286821940722e-27,0.025071172036361694
11.0,3.389578673209118e-27,0.04598346086328811
12.0,3.386124001802567e-27,0.03397263084677438
13.0,3.382870285510953e-27,0.023385669173956184
14.0,3.379274193351736e-27,0.01790015289074746
15.0,3.376110718629136e-27,0.050238915544522644
16.0,3.372567857079597e-27,0.021230250595577448
17.0,3.368090204616934e-27,0.04445468579809457
18.0,3.3636695853698085e-27,0.00937898934018102
19.0,3.359134290962727e-27,0.06840459297135534
20.0,3.3549456310071195e-27,0.1246855166254842
21.0,3.3511060381251915e-27,0.010325347723440154
22.0,3.3480351230262955e-27,0.017064992284978247
23.0,3.345167805268675e-27,0.04637732085272475
24.0,3.342103783138041e-27,0.03199650099240741
25.0,3.3393683429243714e-27,0.05163470862493156
26.0,3.336256931533891e-27,0.063157920298009
27.0,3.3325997964672354e-27,0.03528963204624219
28.0,3.3283483931387264e-27,0.01066141172651541
29.0,3.3236601055315026e-27,0.006749600896931485
30.0,3.3184059593192825e-27,0.0038363956070926806
31.0,3.312067849192355e-27,0.0009011911339825636
32.0,3.304791570961599e-27,0.04583935995929493
33.0,3.2957088986758e-27,0.06482622949794163
34.0,3.285873965245945e-27,0.024984240676906633
35.0,3.274444879794569e-27,0.007618918324444288
36.0,3.261535827296147e-27,0.06797843644936935
37.0,3.2477134765017895e-27,0.028082978734071225
38.0,3.232837513714494e-27,0.0646111658955064
39.0,3.218173008441804e-27,0.010337230351184234
40.0,3.2028905213459933e-27,0.004777398404261152
41.0,3.1877335491847373e-27,0.05204058845355136
42.0,3.1727646806948637e-27,0.011300803982045957
43.0,3.157514812947552e-27,0.07604643145764153
44.0,3.142661956507592e-27,0.03925238307343733
45.0,3.128030832876511e-27,0.061644144705769614
46.0,3.114145810108702e-27,0.022889320779966593
47.0,3.101293424873666e-27,0.05447369528078497
48.0,3.0904171213008776e-27,0.027106387201114357
49.0,3.0816341087601195e-27,0.09094104988485271
50.0,3.0743618790723813e-27,0.02176525177796795
51.0,3.0684516846857688e-27,0.052267080526066045
52.0,3.0642939121095137e-27,0.04667320041561885
53.0,3.061645607945143e-27,0.0431303266745998
54.0,3.0604317954904782e-27,0.05714397988326447
55.0,3.0594497288881323e-27,0.02092063367525121
56.0,3.0589464029323064e-27,0.04271267048471411
57.0,3.0583395409900353e-27,0.013931172693832324
58.0,3.0578241874261927e-27,0.1133370908048482
59.0,3.057184313530856e-27,0.0671145920565369
60.0,3.0568941241280103e-27,0.0018273711726673474
61.0,3.05687751030141e-27,0.03199883507974937
62.0,3.057477311455401e-27,0.013826684472305884
63.0,3.0582304540487448e-27,0.031203961721654384
64.0,3.058745764507031e-27,0.04709557180597783
65.0,3.0589811251476685e-27,0.06095158072143182
66.0,3.058943713597189e-27,0.04770256388547039
67.0,3.0587783435143142e-27,0.09074689875881878
68.0,3.059546558993936e-27,0.029400737063494567
69.0,3.06065299763363e-27,0.026145241257078823
70.0,3.061684166985364e-27,0.09117455694643306
71.0,3.0626897712337178e-27,0.028993918042943045
72.0,3.0634153305345818e-27,0.02009749380676858
73.0,3.064127770591031e-27,0.12353077627021017
74.0,3.0638499802745852e-27,0.11038062995002221
75.0,3.0630528293657485e-27,0.003665423019881084
76.0,3.061822452749062e-27,0.042453713829994154
77.0,3.0603038451552306e-27,0.009488416999334448
78.0,3.0582227387026827e-27,0.004540171951012161
79.0,3.0557095864186277e-27,0.06842199998405031
80.0,3.0521584280547333e-27,0.01964247273081421
81.0,3.0477623158871498e-27,0.07546934690643593
82.0,3.0424282462255413e-27,0.046761731734469056
83.0,3.0366236472142124e-27,0.08409323061773863
84.0,3.029784339691636e-27,0.015280636105272197
85.0,3.0228061870247877e-27,0.04932245444475542
86.0,3.0163807731461185e-27,0.006336649424936125
87.0,3.009187652273327e-27,0.17147789887615617
88.0,3.002141081508531e-27,0.041899885728252095
89.0,2.9954950332400522e-27,0.011822811135374445
90.0,2.9887696073703444e-27,0.000734348952635993
91.0,2.9819806409667504e-27,0.014513580012144473
92.0,2.9751856630558264e-27,0.01860520827421907
93.0,2.968289080841031e-27,0.026109719424360158
94.0,2.9612424130945675e-27,0.005073482186202187
95.0,2.953315496538931e-27,0.0009655779141134575
96.0,2.9456152631459922e-27,0.007368371733247822
97.0,2.9384223010128165e-27,0.07747232322281755
98.0,2.931137711277194e-27,0.026995187526778854
99.0,2.923349940708596e-27,0.0012331430582634998
100.0,2.915769793220068e-27,0.10358921008537372
101.0,2.9079586959755673e-27,0.05364848853330069
102.0,2.90018725302558e-27,0.059243286712493376
103.0,2.8923062104091757e-27,0.021924034734224676
104.0,2.8848353239170923e-27,0.06554297771677303
105.0,2.8780038325034566e-27,0.04076379066057885
106.0,2.87132057958487e-27,0.007063689004706825
107.0,2.864316911112808e-27,0.07570564737612591
108.0,2.856545706541065e-27,0.008193428324910759
109.0,2.848712784450507e-27,0.04292843508723899
110.0,2.840044863452649e-27,0.05536169916907331
111.0,2.8307166871556363e-27,0.04271770137113373
112.0,2.820699470390865e-27,0.053480739603967854
113.0,2.8102923765935938e-27,0.009811151761193368
114.0,2.7986888266480645e-27,0.005832611950173745
115.0,2.7866906834922425e-27,0.021143035560036293
116.0,2.774653067792196e-27,0.01938240349226786
117.0,2.7626585645116223e-27,0.014314413845505115
118.0,2.750714301923501e-27,0.04858300269613362
119.0,2.73911501906378e-27,0.0541222347466209
120.0,2.728137879774346e-27,0.025262329334307873
121.0,2.7163198588019547e-27,0.002502089691779761
122.0,2.705465821047211e-27,0.05245595772405546
123.0,2.69522544675957e-27,0.04284120213711818
124.0,2.68523362314503e-27,0.03247566711036292
125.0,2.675542007266962e-27,0.018357628908496484
126.0,2.6665364121168458e-27,0.0009320994687144779
127.0,2.6580232159778337e-27,0.07579375608443707
128.0,2.6490020152103164e-27,0.002293002043436154
129.0,2.6410843761498824e-27,0.021588939195947447
130.0,2.6336228029193722e-27,0.002754731445751459
131.0,2.6272225790682853e-27,0.04372493036871543
132.0,2.621281110824672e-27,0.008188614873842008
133.0,2.6167830200664412e-27,0.05960643947947987
134.0,2.6133845173645393e-27,0.028625447807718314
135.0,2.6112494005966892e-27,0.08198475449351297
136.0,2.609561607780903e-27,0.009678054652950394
137.0,2.6090956355102046e-27,0.0907089956755519
138.0,2.6097000153670356e-27,0.027622520388686563
139.0,2.6117344367549658e-27,0.0011242231664516655
140.0,2.6144081906453196e-27,0.08512949199249054
141.0,2.6175298280404543e-27,0.05969581704908618
142.0,2.622231280605609e-27,0.003059150257073446
143.0,2.627153053618217e-27,0.022788669505403467
144.0,2.632398722675206e-27,0.09026968923024324
145.0,2.6384326521589653e-27,0.005442195018091708
146.0,2.644852695445703e-27,0.06934673671478045
147.0,2.6518347140274897e-27,0.06778666998489287
148.0,2.6589088955375667e-27,0.13288808460511406
149.0,2.666275808590868e-27,0.028105058492044307
150.0,2.6730443025187136e-27,0.07724979168054025
151.0,2.6803220184234487e-27,0.07173496601428758
152.0,2.6874961419991985e-27,0.08372943828994
153.0,2.694229089326053e-27,0.03543522052282821
154.0,2.7010167989545158e-27,0.05702897172993481
155.0,2.707396866061787e-27,0.042341055710323795
156.0,2.7127873883246278e-27,0.03129851323103874
157.0,2.7168411957496355e-27,0.05006673317476589
158.0,2.720261726196739e-27,0.04132448950245831
159.0,2.7228085065411913e-27,0.0005371218448908432
160.0,2.7245792290062193e-27,0.0018875073804493028
161.0,2.7263064068241158e-27,0.08179401752571301
162.0,2.7272523213158478e-27,0.007961255146303225
163.0,2.7274676876570283e-27,0.06457466169557617
164.0,2.727005318106692e-27,0.021339304641008805
165.0,2.7260515677104525e-27,0.002957021292513477
166.0,2.724619915052567e-27,0.018811276023880483
167.0,2.722674161250489e-27,0.035019429219563886
168.0,2.7203752198292796e-27,0.015374672243998242
169.0,2.717784821350398e-27,0.10194986076733155
170.0,2.714647389321392e-27,0.05059676249817498
171.0,2.7108200911319107e-27,0.04113132409399607
172.0,2.706722257812597e-27,0.009821358464215267
173.0,2.701889377802104e-27,0.03388064591051215
174.0,2.6960815062706715e-27,0.09683178775870126
175.0,2.6895650607264324e-27,0.013512958342762189
176.0,2.6824636285809498e-27,0.039719471595303174
177.0,2.676121145605171e-27,0.025807683705045978
178.0,2.669719484400336e-27,0.04763769864372134
179.0,2.664113370522952e-27,0.007758225795357296
180.0,2.6594945826100143e-27,0.01849180563171666
181.0,2.6550657249004983e-27,0.025650623340033752
182.0,2.6515091215164402e-27,0.08482282197883625
183.0,2.6479045081720416e-27,0.020329038914708133
184.0,2.6431451900186984e-27,0.06380186046602403
185.0,2.6382020893273838e-27,0.0628384397403753
186.0,2.6319678081884715e-27,0.0048341715686677205
187.0,2.6252535702687947e-27,0.025381696931802575
188.0,2.6177205065759977e-27,0.01894951029675905
189.0,2.6106111618941815e-27,0.043576565008249114
190.0,2.604205780155195e-27,0.07760827474460795
191.0,2.598160012694285e-27,0.112696908596473
192.0,2.5923580023258246e-27,0.05364305665546844
193.0,2.5863668539897917e-27,0.061874501003430005
194.0,2.5802329100820436e-27,0.03064457190329302
195.0,2.5738823018141914e-27,0.059720352739756434
196.0,2.5672106132669296e-27,0.09533578505558074
197.0,2.560476387343743e-27,0.08368844893240149
198.0,2.5540354741435084e-27,0.05909174605868427
199.0,2.5480245172263047e-27,0.019495776730315353
200.0,2.5420583496947143e-27,0.02007269449908991
201.0,2.5356640717968423e-27,0.02551990709953222
202.0,2.5299351966967334e-27,0.00826087856648098
203.0,2.5241253983087695e-27,0.09504537398323083
204.0,2.518144226839253e-27,0.012635893450903475
205.0,2.5119529728259695e-27,0.1018756239140875
206.0,2.5047976101020274e-27,0.08167009471533998
207.0,2.496997095137759e-27,0.004954387066129454
208.0,2.4884972784531597e-27,0.011070715676581605
209.0,2.479873015075161e-27,0.062089636931885364
210.0,2.4714839751421658e-27,0.07161355422672797
211.0,2.463339603501888e-27,0.04055404871048898
212.0,2.456088357857e-27,0.031186781298202355
213.0,2.4497365462074224e-27,0.04300148728397277
214.0,2.444216112763538e-27,0.048109786334810285
215.0,2.439580881678157e-27,0.007349924739674838
216.0,2.4356086137131813e-27,0.03975507054120785
217.0,2.4320589626338088e-27,0.061759909852020324
218.0,2.4288136289762146e-27,0.015944333272849463
219.0,2.4252974990814956e-27,0.052204521017657636
220.0,2.4219240314346503e-27,0.04823467811028008
221.0,2.4180831192013818e-27,0.021145517454056947
222.0,2.414514083467382e-27,0.024823613556961457
223.0,2.410903028712873e-27,0.00765665883928093
224.0,2.4074327365273717e-27,0.13985769370483345
225.0,2.4044108604264095e-27,0.01639322060350112
226.0,2.4020767235753243e-27,0.02650322379482281
227.0,2.399477870225521e-27,0.056910717945986844
228.0,2.396941759950777e-27,0.06396981225136887
229.0,2.3949186920715388e-27,0.012655580289924135
230.0,2.3922747524508873e-27,0.04191551388747171
231.0,2.389697692844045e-27,0.10073852912346498
232.0,2.385937060611407e-27,0.03073795584859672
233.0,2.381146148392699e-27,0.01250686065518384
234.0,2.375671868453387e-27,0.08399077977669292
235.0,2.3687693722834266e-27,0.05839766587970217
236.0,2.360582286493089e-27,0.09552497491128717
237.0,2.3508318448497286e-27,0.036675113296915605
238.0,2.3409995608118593e-27,0.031214783252034414
239.0,2.330965857341483e-27,0.009986209429048896
240.0,2.321274462882244e-27,0.03290430106428959
241.0,2.3118976893301794e-27,0.1771901600180295
242.0,2.3028732759907487e-27,0.11151131258650687
243.0,2.293532624745841e-27,0.01311994020600372
244.0,2.2841834429534797e-27,0.021318342267777873
245.0,2.2745040817485694e-27,0.025811440486351003
246.0,2.265196751371628e-27,0.0455805975825142
247.0,2.256700760234566e-27,0.03768900466679506
248.0,2.2495949440391005e-27,0.04073782158213848
249.0,2.244031813139555e-27,0.10137608588987282
250.0,2.239515472126448e-27,0.05234585242586818
251.0,2.2355783524571433e-27,0.0022382413943923154
252.0,2.23275272009269e-27,0.020333358082972024
253.0,2.230818251956867e-27,0.07287147745583003
254.0,2.2286589542142272e-27,0.027557155992440897
255.0,2.2268741398658835e-27,0.005322644492033367
256.0,2.225712238749018e-27,0.11043083326350792
257.0,2.2249635007181047e-27,0.051344700515858877
258.0,2.224533454107218e-27,0.03288872338297749
259.0,2.22405715972524e-27,0.007763630659142927
260.0,2.222989338931664e-27,0.0032653880333878174
261.0,2.222091260221537e-27,0.041547942560682005
262.0,2.220961752641849e-27,0.013600571564586071
263.0,2.2196284651572913e-27,0.021240619511958974
264.0,2.2191164055541028e-27,0.02260631399539717
265.0,2.219369570272246e-27,0.091063498535632
266.0,2.2204603096015563e-27,0.013552746203915056
267.0,2.2223607855181696e-27,0.13368901371877617
268.0,2.2257375389235233e-27,0.043138223822759496
269.0,2.2309272930704476e-27,0.0207028840382769
270.0,2.2377987456658932e-27,0.036526746025814245
271.0,2.2462365834549773e-27,0.055047887705247614
272.0,2.254789042577082e-27,0.00202936381039272
273.0,2.263825571580791e-27,0.08634085259785595
274.0,2.272934695857132e-27,0.04889014236771342
275.0,2.281986768102732e-27,0.016166170406493232
276.0,2.29131941858684e-27,0.05804326510207091
277.0,2.299229526442295e-27,0.0005316189201568986
278.0,2.3061812888163343e-27,0.001069202002192365
279.0,2.3124250142992165e-27,0.026686030076911862
280.0,2.3176647383469766e-27,0.026518402209866718
281.0,2.3214041585200976e-27,0.09048503730935946
282.0,2.324600855506069e-27,0.053320356115012624
283.0,2.3272824179991868e-27,0.0010045790063187667
284.0,2.3290441869650808e-27,0.0404612949850556
285.0,2.330463976579572e-27,0.03208901544538161
286.0,2.331981509772457e-27,0.011235347002423662
287.0,2.3334600783316724e-27,0.013637482526230541
288.0,2.335383985630279e-27,0.0008680182065514092
289.0,2.337605940245378e-27,0.053563439960959906
290.0,2.3399132271868963e-27,0.011256294504127445
291.0,2.3417926046088232e-27,0.0023569722637581964
292.0,2.343464016540778e-27,0.002219823082190518
293.0,2.344994016459473e-27,0.036509635039358605
294.0,2.3467721680651517e-27,0.016638310998188844
295.0,2.348543172659842e-27,0.008349467800582043
296.0,2.3506432446069347e-27,0.004502414672746074
297.0,2.352481424275256e-27,0.009395116687190633
298.0,2.3539252778864708e-27,0.057568660660352704
299.0,2.3550906658245697e-27,0.018081385740368213
300.0,2.3554411640254952e-27,0.08291600740925757
301.0,2.3557080537495477e-27,0.009487502102647333
302.0,2.3559584585010326e-27,0.10254511582931952
303.0,2.356319620730724e-27,0.0719568383893496
304.0,2.3569914151994923e-27,0.017998494952620226
305.0,2.3589694462345342e-27,0.03495451169357581
306.0,2.3614610120893573e-27,0.06745517128096896
307.0,2.3634470394228212e-27,0.05448965978746234
308.0,2.3655276726124415e-27,0.10353038229530409
309.0,2.3674732759843332e-27,0.03556002248349804
310.0,2.368967133219205e-27,0.0018753361814956371
311.0,2.3696615434636872e-27,0.03201869770124902
312.0,2.36964951454818e-27,0.020298298645769465
313.0,2.3692077479373916e-27,0.03235081955632015
314.0,2.3681206513131734e-27,0.09251574807840104
315.0,2.3678820617362774e-27,0.08424619407427558
316.0,2.3674507019236407e-27,0.0653292245895966
317.0,2.3668141879000412e-27,0.053334577747901624
318.0,2.3650473876130196e-27,0.04973219250131173
319.0,2.362888347762635e-27,0.03154865737069133
320.0,2.359209782913339e-27,0.0124069444448326
321.0,2.3543757660502743e-27,0.030093819605153962
322.0,2.348523856681571e-27,0.10637264981909123
323.0,2.3415790566171282e-27,0.02362918969987704
324.0,2.3348678400020097e-27,0.06693548513287688
325.0,2.328662894851564e-27,0.01810098701491641
326.0,2.3236033078887513e-27,0.020696229861171866
327.0,2.3190289186252334e-27,0.029003644801721514
328.0,2.3158029638766042e-27,0.004711703544606374
329.0,2.3137833769202462e-27,0.016049506695316858
330.0,2.3131216348146073e-27,0.00444692581754448
331.0,2.3140066501704625e-27,0.057061441209470945
332.0,2.3155598357922704e-27,0.11643152543384422
333.0,2.317663837504112e-27,0.1009011469815349
334.0,2.320680660108028e-27,0.036795528676511355
335.0,2.3228382698444684e-27,0.021806451598849586
336.0,2.3255323749866886e-27,0.019679954985951608
337.0,2.3285191435531828e-27,0.049626668698740384
338.0,2.331629030360151e-27,0.025605331183495894
339.0,2.3350157941071588e-27,0.052769452510910635
340.0,2.338093660530018e-27,0.000884767053026633
341.0,2.340945533097845e-27,0.10905378040816693
342.0,2.3441741393477048e-27,0.023112265067686304
343.0,2.348106899117211e-27,0.012702638223556814
344.0,2.353788454413095e-27,0.037983245850625645
345.0,2.360446783263115e-27,0.002906660838820937
346.0,2.3677429411892587e-27,0.08973595770636116
347.0,2.3754263936299498e-27,0.051352480276624105
348.0,2.3828702412025316e-27,0.061606124333172085
349.0,2.3900812985776067e-27,0.01844654417161719
350.0,2.3971100531921784e-27,0.03119434529066897
351.0,2.4037794861171646e-27,0.00863603190193374
352.0,2.4106853682313682e-27,0.14423732774295536
353.0,2.41744602148519e-27,0.013102653001292092
354.0,2.423993939389107e-27,0.04744827008125704
355.0,2.4301077477751135e-27,0.018913181191977615
356.0,2.435064127825143e-27,0.012633995449404198
357.0,2.4384676805221574e-27,0.05470039818758966
358.0,2.4401346797181205e-27,0.052001853460194564
359.0,2.4411276558500634e-27,0.022695514729889572
360.0,2.4417131637480852e-27,0.07452136277744197
361.0,2.4426062073505804e-27,0.017636126064821036
362.0,2.4429827372441853e-27,0.06313086143590169
363.0,2.442353016031261e-27,0.04335285817157494
364.0,2.440933426287774e-27,0.016668324291149946
365.0,2.4389643446344667e-27,0.01865014797508097
366.0,2.4366895925137572e-27,0.010129523313976384
367.0,2.4346397240107953e-27,0.01663123240781821
368.0,2.432838254883898e-27,0.06485823458376035
369.0,2.432244299107633e-27,0.04827997455061736
370.0,2.4323233022446733e-27,0.006895147138224519
371.0,2.432669532085398e-27,0.035514324023971665
372.0,2.4325745840905507e-27,0.04459405206458125
373.0,2.4319014874878945e-27,0.04985273725485312
374.0,2.430898082778163e-27,0.07115402575064579
375.0,2.4290268038948806e-27,0.04081059337834303
376.0,2.4271070427940895e-27,0.038881079083329086
377.0,2.4257328748369128e-27,0.009845714739403792
378.0,2.4234539123797703e-27,0.06587037354624237
379.0,2.4214832026591628e-27,0.029220550481396004
380.0,2.4184380541292823e-27,0.1233672224535801
381.0,2.4151712094584673e-27,0.025835086584596073
382.0,2.4122106685161333e-27,0.034030688100921185
383.0,2.4093460709968826e-27,0.05741775022498124
384.0,2.4060404724668048e-27,0.05200946884296401
385.0,2.402432597803355e-27,0.08728125879060256
386.0,2.398569124407602e-27,0.08423430688966356
387.0,2.3944513150694713e-27,0.0531109168227247
388.0,2.3900727263500765e-27,0.0037777529422797296
389.0,2.3855253569244305e-27,0.030256724571000572
390.0,2.381046457910521e-27,0.07299919916664932
391.0,2.376058254792583e-27,0.09118113998716376
392.0,2.3708593831893097e-27,0.004605981609104605
393.0,2.3663420221564937e-27,0.016787666812560827
394.0,2.3619557492741283e-27,0.029670099281783352
395.0,2.3576723689396416e-27,0.018653032529852658
396.0,2.3542095448639794e-27,0.004114285542455776
397.0,2.3499728420251268e-27,0.033262662306527205
398.0,2.3462842964661045e-27,0.04736525032589685
399.0,2.342455665288035e-27,0.005382016968847748
400.0,2.3387762076376533e-27,0.005913335245417648
401.0,2.3352810350578868e-27,0.08234731999913347
402.0,2.3324745658469915e-27,0.05449588074155516
403.0,2.33000820520724e-27,0.03578436921220631
404.0,2.327647972979743e-27,0.029307960252580097
405.0,2.3262305234022302e-27,0.04025137922959304
406.0,2.3241489959344997e-27,0.08997160574566522
407.0,2.3220402518599445e-27,0.02929358950549002
408.0,2.319154166171356e-27,0.05976651349262783
