time,flux,error
0.0,0.8038968582488565,0.017058945614539935
1.0,0.805829621568577,0.0037942089246373006
2.0,0.8075503888188368,0.00534155438669777
3.0,0.808998731377863,0.0752431090398326
4.0,0.8102441381195584,0.0373818873233846
5.0,0.8111824054842213,0.05126493029226634
6.0,0.8120801740233216,0.0648563854168156
7.0,0.8126435565013017,0.049537380678112336
8.0,0.8127928470729018,0.05014710567277639
9.0,0.8125688401707438,0.04351502916128708
10.0,0.8119415166880608,0.06077255494852322
11.0,0.8113282234346075,0.008478674055458445
12.0,0.8107498195627084,0.030502660887265432
13.0,0.81017925311297,0.01350562678342019
14.0,0.8094255383196444,0.09079586127032332
15.0,0.8087604354888764,0.003723578178700327
16.0,0.807906985182135,0.07160402198284337
17.0,0.8066802787261509,0.04159821136738257
18.0,0.8054249996101819,0.017744366922751113
19.0,0.8040787369978933,0.023680670670272363
20.0,0.8027969490914245,0.0625659505793975
21.0,0.8015776467385968,0.03770676569709841
22.0,0.8005693517033982,0.039841267773163797
23.0,0.7995822179890314,0.056653801565511225
24.0,0.7984890893148106,0.024253121220252707
25.0,0.7974813550812813,0.06575913748952837
26.0,0.7963194238467839,0.09169799612217377
27.0,0.7949431077508637,0.06320877508535613
28.0,0.7933352961597334,0.034370984118013384
29.0,0.7915521028951482,0.009292221288687662
30.0,0.7895514674045573,0.012280157355361745
31.0,0.7871597226989457,0.0618924866784096
32.0,0.7844297007626921,0.015328985514130315
33.0,0.7810600075255916,0.006965499850094411
34.0,0.7774104645033693,0.040931937578329664
35.0,0.7731775425804293,0.02810799443090274
36.0,0.7683894460329435,0.014858160841270375
37.0,0.7632314513782408,0.04640122562482851
38.0,0.7576466698334937,0.028041766976430373
39.0,0.7520664950257103,0.025758200567507973
40.0,0.7461940805452886,0.06546339727133521
41.0,0.7402814845672979,0.007822921528187416
42.0,0.7343445230742999,0.0005068149206407722
43.0,0.728218636702852,0.005738580069703113
44.0,0.7221392013240886,0.016540150091204804
45.0,0.7160480349711605,0.02713306130877663
46.0,0.7101265944509986,0.052390205844167315
47.0,0.7044768073703512,0.037943449978368696
48.0,0.6994290149290089,0.04529049465741372
49.0,0.6950269392152248,0.033192384069557344
50.0,0.6910799435423775,0.0013550410006931484
51.0,0.6875516738326337,0.029982647454664488
52.0,0.6845992509084887,0.04707714377519953
53.0,0.6821563477602659,0.016555760055370936
54.0,0.6802100906821582,0.03425012102843063
55.0,0.6783572934107176,0.08486983832746149
56.0,0.6766996331269592,0.04126144414059517
57.0,0.6750544556768258,0.02723752540245627
58.0,0.6735074994684291,0.02670429768700341
59.0,0.6719921455123788,0.051601142238075465
60.0,0.6706716392468686,0.09606740816977363
61.0,0.669511280679531,0.016183817856002817
62.0,0.668621309931169,0.05605113608336107
63.0,0.6678381229938446,0.103772952344696
64.0,0.6670284873756628,0.04587799288157323
65.0,0.6661862332983358,0.007914736001265027
66.0,0.6653166841480427,0.001775191295017916
67.0,0.6644699779157888,0.09292398667305966
68.0,0.6640026356793893,0.04105758459930254
69.0,0.6636944431430201,0.02929578601952204
70.0,0.6633936500083586,0.049274069942399766
71.0,0.6631218051609141,0.051885970621396105
72.0,0.6628000999011564,0.04043759920709681
73.0,0.6625286255095804,0.0027655702088948833
74.0,0.6619660303509556,0.055447460250628994
75.0,0.6612680897655866,0.013086352399929788
76.0,0.6604543529545496,0.038743919963439004
77.0,0.6595671526124322,0.06556383451788171
78.0,0.6585072016209411,0.014265087856012666
79.0,0.6573201860908561,0.04375774297943579
80.0,0.6557941209107692,0.022685794915387882
81.0,0.6539952606415856,0.023623458410300967
82.0,0.6518850540066417,0.09557388722557743
83.0,0.6496131776053008,0.05600937615037171
84.0,0.6469722049199234,0.03499485244815369
85.0,0.6442606154721797,0.11377830408881284
86.0,0.641711353929924,0.03062233337703372
87.0,0.6388617406524498,0.024290628684959795
88.0,0.6360313581671196,0.005220049962294574
89.0,0.6333070368737703,0.03390530819297321
90.0,0.6305203752368718,0.05056033881611707
91.0,0.6276731419348722,0.05026921577342808
92.0,0.6247855744381172,0.029164272309855716
93.0,0.6218248228420722,0.0695118986206393
94.0,0.6187795538863964,0.019771397969467423
95.0,0.6154022809859296,0.07069422725882635
96.0,0.6120834608328433,0.0555887776593392
97.0,0.6089189800568291,0.003378125309046322
98.0,0.6056934588027848,0.037550013602702687
99.0,0.6022633704210881,0.009961551738712545
100.0,0.5988756822495808,0.007823778161915504
101.0,0.5953824480514145,0.07119001690805432
102.0,0.591882055189651,0.05849079211892264
103.0,0.588322399801006,0.10322385498283576
104.0,0.5848807411211244,0.03514952532754704
105.0,0.5816342202564235,0.011571540763338915
106.0,0.5784095608891345,0.013423498301059576
107.0,0.5750519939151325,0.035028762372697
108.0,0.5714167871769553,0.009582128033947201
109.0,0.5677580234867788,0.009667570768680005
110.0,0.5638090748652734,0.018003885886007733
111.0,0.559626757411805,0.027748746076668315
112.0,0.555192945644857,0.030146079781769603
113.0,0.550607276874845,0.038935209382894014
114.0,0.5455871318495155,0.12831138973328
115.0,0.5404141439837958,0.036366219010290295
116.0,0.535209467308072,0.031013438264663986
117.0,0.5299922667942525,0.03675280990537024
118.0,0.5247536789494444,0.01068778518169968
119.0,0.5195859523300908,0.08955898424155591
120.0,0.514583452865318,0.027940028748008196
121.0,0.5092426901106994,0.002095504893810558
122.0,0.50420123326404,0.034834970831591996
123.0,0.4993402416721468,0.05291549396517134
124.0,0.49453492582486575,0.14074737039616095
125.0,0.48980097283513924,0.013219723543472712
126.0,0.48527599118784076,0.11413709111040966
127.0,0.48089628274727075,0.039679029079499654
128.0,0.47632537171766304,0.05676292469355054
129.0,0.472131608516356,0.01139085414533291
130.0,0.4680924500425894,0.0402813294637433
131.0,0.4644182614911747,0.038427060195654755
132.0,0.4608967861039166,0.017483445301939522
133.0,0.4578760797839514,0.017248315888120286
134.0,0.45523960932685925,0.019581773271824955
135.0,0.45305485615467145,0.0028987442374682273
136.0,0.4510481456470043,0.07247078649101091
137.0,0.4494982617712338,0.009468285088858237
138.0,0.44835839800875793,0.08362101387354404
139.0,0.4477564154576268,0.0543097222312508
140.0,0.4474228568072479,0.02538140285592802
141.0,0.44729817571336195,0.0006666314307903838
142.0,0.44778889692530055,0.06404876107622885
143.0,0.4484299709762941,0.06747162541124811
144.0,0.4492678044169737,0.06253999443466983
145.0,0.45046471582421155,0.03576614143674172
146.0,0.45188279677341264,0.010394850071368101
147.0,0.45357990401278037,0.032867963850022185
148.0,0.45539600763321936,0.03912082840659267
149.0,0.4574026739426129,0.025744129773555276
150.0,0.45929642876092674,0.06856723761559651
151.0,0.46146295787378233,0.0005092424214844128
152.0,0.4636855198080941,0.07139307746209435
153.0,0.4658426515028389,0.03450495946963028
154.0,0.4680965600745699,0.03690019309886688
155.0,0.47028328226981814,0.08456879543353256
156.0,0.47219885025201147,0.08098321883505859
157.0,0.4737236753774676,0.04980435902637871
158.0,0.4751014363274684,0.034720761690195265
159.0,0.47623822677061267,0.0801870778723226
160.0,0.47715358059779944,0.06657294535675862
161.0,0.4780836505018579,0.01063051165977031
162.0,0.47876057123591326,0.040953646767326726
163.0,0.4791946992142181,0.01662319910338977
164.0,0.47940432969733654,0.02346749940007084
165.0,0.4794524473921214,0.06369146864476193
166.0,0.47933576322966026,0.0963808747575095
167.0,0.4790301486355591,0.09032914267733379
168.0,0.47857930875095966,0.03483500297973684
169.0,0.4779985980899669,0.0072892311392037945
170.0,0.4771974246869031,0.042428940581445806
171.0,0.47613009829246605,0.004511724449408129
172.0,0.4749437664077469,0.022187086109006927
173.0,0.4734734307939758,0.040572457240252484
174.0,0.47163190089908996,0.03366687938958992
175.0,0.469505866896479,0.05074350699006346
176.0,0.46713304452023,0.06333647738335452
177.0,0.4649736931058024,0.012776968241647502
178.0,0.46273678663111933,0.05263827596559402
179.0,0.46071445824102275,0.002438582330853298
180.0,0.4589725517514915,0.05469776332559259
181.0,0.45723773196981626,0.054956257840670056
182.0,0.45575507017065414,0.04644353043212906
183.0,0.4542132645272101,0.03308078955296557
184.0,0.45223873886875626,0.005321055609989297
185.0,0.45017975003779587,0.027666990248929987
186.0,0.44765802340462946,0.0233411581829657
187.0,0.44495744240366647,0.053732611127273205
188.0,0.44195869115379516,0.027119804712122504
189.0,0.43908405657362976,0.05360321206794477
190.0,0.436421864431163,0.04316321640534606
191.0,0.4338451235187609,0.00552963162815774
192.0,0.4313119205849529,0.022630540430204543
193.0,0.42867974948389415,0.05488891427919858
194.0,0.4259720865556959,0.040884848614149844
195.0,0.4231685254809098,0.011153242159485465
196.0,0.420236900401935,0.05932695121225291
197.0,0.41726059465708676,0.05361916898515395
198.0,0.41436280006095466,0.052204629043703155
199.0,0.41158760238605036,0.04594379693504751
200.0,0.4088050620407309,0.00844639786674059
201.0,0.40585824957651934,0.015537620164878056
202.0,0.403131196417745,0.005927880356351426
203.0,0.4003640943363902,0.019324366179882816
204.0,0.3975226606242799,0.029252028362427046
205.0,0.3945915399865854,0.06725790516999736
206.0,0.3913126941546807,0.05795549590820068
207.0,0.38780522380158317,0.08606736798848114
208.0,0.3840570330920212,0.05808016365398096
209.0,0.38026786284106184,0.018154587198601836
210.0,0.376551218842556,0.046301548286811586
211.0,0.3728959189288181,0.09517404198562907
212.0,0.36951494284324,0.03519737592118569
213.0,0.3664082984183829,0.041132704523818946
214.0,0.36355505639468194,0.012984932543081324
215.0,0.3609841743765017,0.06035024621625651
216.0,0.358627138006814,0.045601719956651354
217.0,0.3564083049853787,0.008509157720006008
218.0,0.3542950543221195,0.14766683030897812
219.0,0.35209405662301957,0.06186694145522682
220.0,0.3499565556729252,0.036844232500815165
221.0,0.3476770094799959,0.05513482198837662
222.0,0.34551587780183934,0.03542097704909424
223.0,0.3433640002123965,0.0278787819734828
224.0,0.3412820021709498,0.03041513731707726
225.0,0.33937252083434544,0.09830031973024816
226.0,0.33771565972467815,0.002404968617591901
227.0,0.3359803468645598,0.08798060007938281
228.0,0.3342850058668648,0.012150962165948229
229.0,0.3327899712435912,0.029621464168076594
230.0,0.3311023405315295,0.12271260834055549
231.0,0.32946288813967783,0.008514289576904433
232.0,0.3274359669271368,0.04051266915166317
233.0,0.3250788970956379,0.017892855405800635
234.0,0.3225120023831716,0.015842072476340452
235.0,0.3194748092240468,0.03978677904495378
236.0,0.316011174024952,0.04052960655027796
237.0,0.31201597893263994,0.060934819357336224
238.0,0.3079901172377505,0.012839417956686498
239.0,0.30387713158113006,0.045719323836562256
240.0,0.29984994244973817,0.00062310967745665
241.0,0.29588560252287727,0.10719116260964573
242.0,0.2919958807510542,0.03720553803861562
243.0,0.28795006861812394,0.05155812355061498
244.0,0.28386537782666554,0.05291943063628227
245.0,0.2796355099092444,0.016150679525639536
246.0,0.27550165621571526,0.061481475181506554
247.0,0.271609847513936,0.02839618870026341
248.0,0.2681521337311574,0.14108930493539423
249.0,0.2651807139246647,0.0626984653438109
250.0,0.2625305217857072,0.03139108837702339
251.0,0.26005750432882496,0.01346831846856956
252.0,0.257964817878423,0.027415541394436756
253.0,0.2561890584951653,0.006039047501335389
254.0,0.254346950139065,0.05371437154960477
255.0,0.2526517450174227,0.030346567154337912
256.0,0.2511909616885484,0.07601926255258099
257.0,0.24989992724489254,0.13587375941067759
258.0,0.24875482482454245,0.015812119160351374
259.0,0.24763824799120396,0.04980237037706442
260.0,0.24636889966636522,0.05666355568743713
261.0,0.2452131164410116,0.05187704453963382
262.0,0.2440261635092591,0.001734078406618176
263.0,0.24280928723044778,0.01189071455445359
264.0,0.241907894067914,0.09137201225152093
265.0,0.241293932526961,0.03782620556989772
266.0,0.24099307408489867,0.015175085915151884
267.0,0.2409992871183786,0.033682915561173886
268.0,0.24155013296678082,0.016893251706695075
269.0,0.242763847942442,0.07347997935239518
270.0,0.24459203237274124,0.04045268897784299
271.0,0.2469947984326628,0.09354386695205842
272.0,0.24947913624737292,0.04962593519496819
273.0,0.252191354990869,0.015142417242532284
274.0,0.2550097814015631,0.0733228338154684
275.0,0.25790383188113974,0.030370940919285452
276.0,0.26099195443428824,0.05337196966481375
277.0,0.26367946692420174,0.005749991337391795
278.0,0.266125526220955,0.003105499239413992
279.0,0.26841613431835454,0.008664274666744253
280.0,0.27044571483437074,0.06283071520324192
281.0,0.27203416984406015,0.02298162471204092
282.0,0.2735010975655569,0.009607402074812088
283.0,0.27483733232289553,0.0323627155050512
284.0,0.27588871599428777,0.00035454372556917757
285.0,0.27684408826152085,0.057479377823001734
286.0,0.27784612863829244,0.07727356780495304
287.0,0.2788398116660591,0.044053807691673635
288.0,0.2799831776026499,0.049664553681231786
289.0,0.2812197355072202,0.024869911073353925
290.0,0.2824708992985837,0.004152488559930201
291.0,0.28355942962242264,0.06575119179967055
292.0,0.2845667174386894,0.04022132237301047
293.0,0.28552153885113474,0.019618808890824423
294.0,0.2865587869631078,0.04247180356726903
295.0,0.2875867710392949,0.02533202069272604
296.0,0.28871728383224127,0.023234935454411756
297.0,0.2897439888221848,0.007965220491607031
298.0,0.2906262360381503,0.0047454275117196475
299.0,0.2914117865162721,0.012542211820357292
300.0,0.2919176360337065,0.041532394998907166
301.0,0.29239579309285485,0.07507387128933547
302.0,0.29286088941819,0.030045478203237733
303.0,0.29334765399377083,0.012573764962268691
304.0,0.29391951459222093,0.02896161628473916
305.0,0.2949207620145985,0.1686667764144567
306.0,0.29607737963581976,0.08600333444401723
307.0,0.29704401742031983,0.051361479295695914
308.0,0.2980381299645586,0.0029519207455320716
309.0,0.29898680871125033,0.024145723462565813
310.0,0.29978165534368145,0.03885271911053831
311.0,0.3003002280047414,0.05606788805348603
312.0,0.300575614599064,0.011413397029640055
313.0,0.30070375254913667,0.019295452565320823
314.0,0.30061115666634036,0.05427258499827386
315.0,0.30081240600091713,0.0653810856836111
316.0,0.3009375260425164,0.0008411854752991697
317.0,0.30097335806149683,0.03947601725397774
318.0,0.3005986145176248,0.05392961667756624
319.0,0.30007503700759325,0.004578160341310012
320.0,0.2990154330991405,0.04936995429126555
321.0,0.297547587662554,0.03160455612433279
322.0,0.2957119674115446,0.030930555635100776
323.0,0.2934722626968454,0.03452952281560707
324.0,0.29127779577147067,0.03440066546092757
325.0,0.28920992659970174,0.077561642416672
326.0,0.28748017253073055,0.04560516770199083
327.0,0.28585055734508336,0.02920187291651178
328.0,0.28462409105708547,0.02130344603189333
329.0,0.28375580428727243,0.07994656655675152
330.0,0.2833079495397641,0.07551221957603649
331.0,0.28335078665319524,0.14365519320339534
332.0,0.28359051413683406,0.006537354322824821
333.0,0.28400048441947157,0.0017557579927158574
334.0,0.28472558825309685,0.020771866811853983
335.0,0.28517112557674196,0.054019757018453476
336.0,0.28583441580712354,0.0384488970398679
337.0,0.28663405640421197,0.011746001288725988
338.0,0.2875057016014049,0.01063847271095024
339.0,0.2885003201661403,0.008189507547557713
340.0,0.28941369130957806,0.012700458041671967
341.0,0.29028356872707967,0.028947989580313267
342.0,0.29132486177665207,0.010425425175394179
343.0,0.2926499044433826,0.07308830265108933
344.0,0.2946107625042564,0.060098726580828966
345.0,0.2969281124272657,0.06642709893232703
346.0,0.29947884692981497,0.026777760644386896
347.0,0.3021900558848224,0.05026218891240733
348.0,0.3048618465185068,0.04472334563288864
349.0,0.30751385172106294,0.033752281530619134
350.0,0.31016951487294514,0.017618532779668003
351.0,0.31275881433300246,0.028151591010594508
352.0,0.31547824801132013,0.012563590156742086
353.0,0.31818732198973143,0.06302551953554945
354.0,0.3208613752274538,0.007701228813319118
355.0,0.3234315593915476,0.039236877328537235
356.0,0.32565177727430494,0.025248020824330215
357.0,0.32738801355244235,0.026968050754296393
358.0,0.3285718904381398,0.007272849958375148
359.0,0.3295564785947154,0.0960414758358868
360.0,0.3304137090346298,0.009942780488910855
361.0,0.33137017403451935,0.026382161363775244
362.0,0.3321268915704651,0.09949156481981337
363.0,0.33251721982000737,0.06651591115667803
364.0,0.3326246796798937,0.0598347713961396
365.0,0.33253598658753974,0.04233453904829111
366.0,0.33232625684532874,0.06774760767238205
367.0,0.33215715057934925,0.0076735818878165985
368.0,0.332017390772332,0.0847570417053583
369.0,0.33223076696287923,0.0544447985548418
370.0,0.33261760237742055,0.03923020016810742
371.0,0.33305354961205086,0.001044158945091078
372.0,0.333312506461945,0.025676810854100025
373.0,0.33335952132258245,0.0068851379382294355
374.0,0.3332838645964887,0.057100206434298764
375.0,0.3328922628037361,0.05174205029528785
376.0,0.33245958229244577,0.054726910844831625
377.0,0.3321834955297739,0.0836783912768759
378.0,0.33156201909674454,0.04465153250157697
379.0,0.3310257750676254,0.06293183029449649
380.0,0.33010666560994434,0.020930965188188978
381.0,0.32910446674333693,0.027744434072695834
382.0,0.3281939253207224,0.037604206713291455
383.0,0.3272849620643623,0.06360638929332783
384.0,0.32617922518191933,0.16155769767435998
385.0,0.32492668144648457,0.023209830823898166
386.0,0.32355362668851184,0.102407428392776
387.0,0.3220742129458398,0.09635105343692178
388.0,0.32049172839456647,0.02361654678691626
389.0,0.3188313489686073,0.019305581628866177
390.0,0.31716827147170906,0.029904278760178524
391.0,0.31529067661117083,0.12110993616914685
392.0,0.31330450540793964,0.055698009711224905
393.0,0.31152151455959504,0.03575044321829104
394.0,0.3097515400677056,0.025083900325873112
395.0,0.3079864130451507,0.013264269605493465
396.0,0.30647622605094366,0.02784696172552122
397.0,0.3046694006274527,0.029685736943071847
398.0,0.3030317150000642,0.037646249388518835
399.0,0.30132711533873446,0.045041710845512006
400.0,0.29965795494154357,0.020315668992063666
401.0,0.2980372501799009,0.007562195195300482
402.0,0.29663735055954693,0.06489000999192947
403.0,0.29533773414449305,0.012459681406782452
404.0,0.29406092603229417,0.014479945298892842
405.0,0.2931021282846798,0.040543138646065
406.0,0.2919112500686348,0.010670432358047
407.0,0.29071847995236655,0.08112077393237026
408.0,0.2892652333282433,0.05796079920161601
409.0,0.287554123633285,0.011171114963103164
410.0,0.2860247076796165,0.006061458984121554
411.0,0.2845069686970747,0.04569406030147379
412.0,0.28309279413541544,0.021025371710787152
413.0,0.28148590973676996,0.07897112585592009
414.0,0.2797496793226379,0.008088903601731545
415.0,0.27798888552827977,0.08029794407255109
416.0,0.2762502230536928,0.022172460170901125
417.0,0.2746232294178189,0.030730705598280908
418.0,0.2730779097572818,0.055418685852327065
419.0,0.2717293842232155,0.017334808989497536
420.0,0.2706258593132441,0.02193965566993786
421.0,0.2694094192750103,0.011152067492954006
422.0,0.2682618311398447,0.008392591429583622
423.0,0.2672935368152378,0.13132488547099805
424.0,0.26652025540682184,0.008638055387625423
425.0,0.2658224843163598,0.051776297155491494
426.0,0.2650982878411086,0.017216529350249043
427.0,0.2642292590361487,0.025113991231645646
428.0,0.26329792991271095,0.025717066531713746
429.0,0.2625173418868116,0.02493390774274583
430.0,0.2614467154358593,0.041364229377180706
431.0,0.26018478351767643,0.0007360202541835498
432.0,0.2586051513393301,0.028638438955415915
433.0,0.25697974383815136,0.00015960625383764948
434.0,0.2551648932800658,0.018374490792864327
435.0,0.25318166284976296,0.10133792602467495
436.0,0.25108287680443586,0.028153651184950612
437.0,0.24900759943650144,0.053139678529136064
438.0,0.2468787457271108,0.012848460366228394
