time,flux,error
0.0,0.8038968582488565,0.041436919124490906
1.0,0.805829621568577,0.0615149164233636
2.0,0.8075503888188368,0.09296136157271945
3.0,0.808998731377863,0.09593569502035593
4.0,0.8102441381195584,0.06317635805264625
5.0,0.8111824054842213,0.0023919046456575884
6.0,0.8120801740233216,0.026921850148086082
7.0,0.8126435565013017,0.09764271129125572
8.0,0.8127928470729018,0.004312791539510488
9.0,0.8125688401707438,0.00157868533059647
10.0,0.8119415166880608,0.07287664701785644
11.0,0.8113282234346075,0.03214607668603265
12.0,0.8107498195627084,0.012091528991205833
13.0,0.81017925311297,0.04195345285044898
14.0,0.8094255383196444,0.010661870821817071
15.0,0.8087604354888764,0.10686798059405422
16.0,0.807906985182135,0.03878410942024379
17.0,0.8066802787261509,0.03949095410158801
18.0,0.8054249996101819,0.01613164627675955
19.0,0.8040787369978933,0.03229601693294939
20.0,0.8027969490914245,0.044980858567283295
21.0,0.8015776467385968,0.05993131207837598
22.0,0.8005693517033982,0.02703059609552069
23.0,0.7995822179890314,0.01855306553627156
24.0,0.7984890893148106,0.004183647941112187
25.0,0.7974813550812813,0.06536615578746564
26.0,0.7963194238467839,0.08513810132390014
27.0,0.7949431077508637,0.03892538213407912
28.0,0.7933352961597334,0.06257127768040463
29.0,0.7915521028951482,0.037039828495561304
30.0,0.7895514674045573,0.03113813094757882
31.0,0.7871597226989457,0.036240444358744475
32.0,0.7844297007626921,0.046216502531960815
33.0,0.7810600075255916,0.10212543162145021
34.0,0.7774104645033693,0.00765939709647471
35.0,0.7731775425804293,0.04295849080559478
36.0,0.7683894460329435,0.014271196897006773
37.0,0.7632314513782408,0.0449617562626929
38.0,0.7576466698334937,0.032717642017037446
39.0,0.7520664950257103,0.014707434028983175
40.0,0.7461940805452886,0.07259801686959028
41.0,0.7402814845672979,0.023663986704058407
42.0,0.7343445230742999,0.0818710468364864
43.0,0.728218636702852,0.0033419294355898042
44.0,0.7221392013240886,0.09671685812454463
45.0,0.7160480349711605,0.03916020858721225
46.0,0.7101265944509986,0.04550206109088112
47.0,0.7044768073703512,0.08332405439013396
48.0,0.6994290149290089,0.013150453506752086
49.0,0.6950269392152248,0.001691148337678677
50.0,0.6910799435423775,0.01206225948236066
51.0,0.6875516738326337,0.03048257806368958
52.0,0.6845992509084887,0.015076444672581308
53.0,0.6821563477602659,0.009487751158239747
54.0,0.6802100906821582,0.06743390286327432
55.0,0.6783572934107176,0.07724798131119337
56.0,0.6766996331269592,0.0742665790398474
57.0,0.6750544556768258,0.0842606881395133
58.0,0.6735074994684291,0.008878886054953865
59.0,0.6719921455123788,0.009575279881990128
60.0,0.6706716392468686,0.012462167705519748
61.0,0.669511280679531,0.026684393000751584
62.0,0.668621309931169,0.12494388504074315
63.0,0.6678381229938446,0.04429378110228881
64.0,0.6670284873756628,0.044203113756548035
65.0,0.6661862332983358,0.1599606963096676
66.0,0.6653166841480427,0.006060043913438631
67.0,0.6644699779157888,0.014380672116029029
68.0,0.6640026356793893,0.0024880444939957024
69.0,0.6636944431430201,0.021487203251053407
70.0,0.6633936500083586,0.07729367332677463
71.0,0.6631218051609141,0.007087287011860866
72.0,0.6628000999011564,0.011363305430746718
73.0,0.6625286255095804,0.023524053787954455
74.0,0.6619660303509556,0.053946288196635966
75.0,0.6612680897655866,0.12092834810986197
76.0,0.6604543529545496,0.04234428476595182
77.0,0.6595671526124322,0.023302016327206927
78.0,0.6585072016209411,0.025690864572478146
79.0,0.6573201860908561,0.08732872044446918
80.0,0.6557941209107692,0.05737835239972431
81.0,0.6539952606415856,0.005836194971837301
82.0,0.6518850540066417,0.07448141436952481
83.0,0.6496131776053008,0.02978420389727611
84.0,0.6469722049199234,0.04592500486160149
85.0,0.6442606154721797,0.24260588265900584
86.0,0.641711353929924,0.0971395692789285
87.0,0.6388617406524498,0.005553356265350912
88.0,0.6360313581671196,0.044221025700266314
89.0,0.6333070368737703,0.07523688378974391
90.0,0.6305203752368718,0.0015323479654394713
91.0,0.6276731419348722,0.02065248416658691
92.0,0.6247855744381172,0.06931485511132522
93.0,0.6218248228420722,0.008799182679524408
94.0,0.6187795538863964,0.004897456682972546
95.0,0.6154022809859296,0.10989330244743281
96.0,0.6120834608328433,0.017907826803635764
97.0,0.6089189800568291,0.0021458713026452077
98.0,0.6056934588027848,0.024499975921249695
99.0,0.6022633704210881,0.08476861614615352
100.0,0.5988756822495808,0.08034251110243334
101.0,0.5953824480514145,0.04442639963632641
102.0,0.591882055189651,0.09064230837018439
103.0,0.588322399801006,0.040272414658916844
104.0,0.5848807411211244,0.018748606831248012
105.0,0.5816342202564235,0.00545659247976629
106.0,0.5784095608891345,0.07391531567139713
107.0,0.5750519939151325,0.02390655913561743
108.0,0.5714167871769553,0.05957311692622255
109.0,0.5677580234867788,0.04443274890451369
110.0,0.5638090748652734,0.046123124280376404
111.0,0.559626757411805,0.07174731674242031
112.0,0.555192945644857,0.03380412822350645
113.0,0.550607276874845,0.05595895312715633
114.0,0.5455871318495155,0.049196836633320085
115.0,0.5404141439837958,0.02796268415820831
116.0,0.535209467308072,0.016502449905409847
117.0,0.5299922667942525,0.04523991453664328
118.0,0.5247536789494444,0.033047424968858756
119.0,0.5195859523300908,0.0035579605971033574
120.0,0.514583452865318,0.04727235768877837
121.0,0.5092426901106994,0.04746400649407001
122.0,0.50420123326404,0.0011262869376620743
123.0,0.4993402416721468,0.055457611539647844
124.0,0.49453492582486575,0.016192723814625092
125.0,0.48980097283513924,0.07540456883799107
126.0,0.48527599118784076,0.04445123889007828
127.0,0.48089628274727075,0.00560385004153578
128.0,0.47632537171766304,0.01999056075442992
129.0,0.472131608516356,0.003430507526500045
130.0,0.4680924500425894,0.05043762725790858
131.0,0.4644182614911747,0.055877643259355986
132.0,0.4608967861039166,0.03591142287989779
133.0,0.4578760797839514,0.05480205217417509
134.0,0.45523960932685925,0.05685497199440431
135.0,0.45305485615467145,0.02978901750124452
136.0,0.4510481456470043,0.06385918556393466
137.0,0.4494982617712338,0.06861968840448382
138.0,0.44835839800875793,0.05462686243878415
139.0,0.4477564154576268,0.0005792841286474232
140.0,0.4474228568072479,0.029711429903683046
141.0,0.44729817571336195,0.021521300165781396
142.0,0.44778889692530055,0.05321900805772677
143.0,0.4484299709762941,0.05133057311402472
144.0,0.4492678044169737,0.028444864361805086
145.0,0.45046471582421155,0.06613462977722012
146.0,0.45188279677341264,0.0030650975378678142
147.0,0.45357990401278037,0.006737849606840169
148.0,0.45539600763321936,0.015409488209470716
149.0,0.4574026739426129,0.13565706451591894
150.0,0.45929642876092674,0.0218879965555518
151.0,0.46146295787378233,0.03167047594376279
152.0,0.4636855198080941,0.018300802415328863
153.0,0.4658426515028389,0.002503529930469387
154.0,0.4680965600745699,0.11389686411209357
155.0,0.47028328226981814,0.071108452013856
156.0,0.47219885025201147,0.031792463626208044
157.0,0.4737236753774676,0.007807346237095152
158.0,0.4751014363274684,0.04621906398406403
159.0,0.47623822677061267,0.01490328185402643
160.0,0.47715358059779944,0.10109537320007551
161.0,0.4780836505018579,0.07333204699844643
162.0,0.47876057123591326,0.1258204695582214
163.0,0.4791946992142181,0.01918158145911481
164.0,0.47940432969733654,0.040232518942022656
165.0,0.4794524473921214,0.0766627376473112
166.0,0.47933576322966026,0.06297662014839185
167.0,0.4790301486355591,0.048910235976667576
168.0,0.47857930875095966,0.03278696606302026
169.0,0.4779985980899669,0.054582853623108496
170.0,0.4771974246869031,0.02905400582953881
171.0,0.47613009829246605,0.05063467256392987
172.0,0.4749437664077469,0.07569791769730695
173.0,0.4734734307939758,0.015596718120300439
174.0,0.47163190089908996,0.08203875627177312
175.0,0.469505866896479,0.039323917165707274
176.0,0.46713304452023,0.04274747539155383
177.0,0.4649736931058024,0.03606909667114411
178.0,0.46273678663111933,0.019673653781881215
179.0,0.46071445824102275,0.03707728198345741
180.0,0.4589725517514915,0.019713830232556632
181.0,0.45723773196981626,0.05862793228371321
182.0,0.45575507017065414,0.018117168581785095
183.0,0.4542132645272101,0.030575158118535836
184.0,0.45223873886875626,0.015043969672821296
185.0,0.45017975003779587,0.0772492489400472
186.0,0.44765802340462946,0.015906306402893568
187.0,0.44495744240366647,0.0325709004733587
188.0,0.44195869115379516,0.01015512028519188
189.0,0.43908405657362976,0.013204385541407538
190.0,0.436421864431163,0.08849342775095023
191.0,0.4338451235187609,0.03243405950830151
192.0,0.4313119205849529,0.022162810055762268
193.0,0.42867974948389415,0.05661293249478723
194.0,0.4259720865556959,0.0014517659030186718
195.0,0.4231685254809098,0.003909550754039116
196.0,0.420236900401935,0.043196099864481
197.0,0.41726059465708676,0.007632886656447058
198.0,0.41436280006095466,0.009694244076400023
199.0,0.41158760238605036,0.029846397479758875
200.0,0.4088050620407309,0.024174173705630984
201.0,0.40585824957651934,0.007867981338024216
202.0,0.403131196417745,0.002961260381877687
203.0,0.4003640943363902,0.013512170637455004
204.0,0.3975226606242799,0.00757608643251273
205.0,0.3945915399865854,0.030260259322460587
206.0,0.3913126941546807,0.09783724384376452
207.0,0.38780522380158317,0.024241856948977174
208.0,0.3840570330920212,0.07161525498990706
209.0,0.38026786284106184,0.0041700378787075856
210.0,0.376551218842556,0.05203322938705732
211.0,0.3728959189288181,0.002028591493544957
212.0,0.36951494284324,0.023461269314009672
213.0,0.3664082984183829,0.07666343991917551
214.0,0.36355505639468194,0.01302255283376026
215.0,0.3609841743765017,0.007729640595680007
216.0,0.358627138006814,0.026839234590067776
217.0,0.3564083049853787,0.016696841840055397
218.0,0.3542950543221195,0.020469128566677354
219.0,0.35209405662301957,0.10854188535810219
220.0,0.3499565556729252,0.03898502318274299
221.0,0.3476770094799959,0.12166505234811771
222.0,0.34551587780183934,0.06876540101723312
223.0,0.3433640002123965,0.012705623915374437
224.0,0.3412820021709498,0.09557843154489815
225.0,0.33937252083434544,0.10767057167575858
226.0,0.33771565972467815,0.03928010914416165
227.0,0.3359803468645598,0.01949502923822201
228.0,0.3342850058668648,0.1202386045268336
229.0,0.3327899712435912,0.009332166953489283
230.0,0.3311023405315295,0.03339242627237751
231.0,0.32946288813967783,0.06561598887456126
232.0,0.3274359669271368,0.06168604860065801
233.0,0.3250788970956379,0.08333136621401288
234.0,0.3225120023831716,0.006360618811427781
235.0,0.3194748092240468,0.0463993214100508
236.0,0.316011174024952,0.038814733204856226
237.0,0.31201597893263994,0.045803680279211154
238.0,0.3079901172377505,0.08859561513223452
239.0,0.30387713158113006,0.03833672140722879
240.0,0.29984994244973817,0.007952716109286285
241.0,0.29588560252287727,0.03243407733205955
242.0,0.2919958807510542,0.03344815884422407
243.0,0.28795006861812394,0.025519211250798864
244.0,0.28386537782666554,0.02260143193181123
245.0,0.2796355099092444,0.007830923048657063
246.0,0.27550165621571526,0.018960858362684383
247.0,0.271609847513936,0.05251235069235952
248.0,0.2681521337311574,0.02154246831855629
249.0,0.2651807139246647,0.01754353915949675
250.0,0.2625305217857072,0.03706172087540582
251.0,0.26005750432882496,0.016371491585347935
252.0,0.257964817878423,0.04617133531311621
253.0,0.2561890584951653,0.049468861672903104
254.0,0.254346950139065,0.042469858109466
255.0,0.2526517450174227,0.0013517185363983784
256.0,0.2511909616885484,0.022077316652877366
257.0,0.24989992724489254,0.03362016705797293
258.0,0.24875482482454245,0.006047353580602099
259.0,0.24763824799120396,0.02846929401130041
260.0,0.24636889966636522,0.000252908576404678
261.0,0.2452131164410116,0.10580955613278253
262.0,0.2440261635092591,0.031117168096232092
263.0,0.24280928723044778,0.0279026588235088
264.0,0.241907894067914,0.011392176551102163
265.0,0.241293932526961,0.12932788632872572
266.0,0.24099307408489867,0.08545481834317535
267.0,0.2409992871183786,0.0017665895620139656
268.0,0.24155013296678082,0.025808126564856357
269.0,0.242763847942442,0.06284948785312994
270.0,0.24459203237274124,0.07337262216862002
271.0,0.2469947984326628,0.019561887174981342
272.0,0.24947913624737292,0.07513332155038943
273.0,0.252191354990869,0.024287162856915498
274.0,0.2550097814015631,0.002380197709565981
275.0,0.25790383188113974,0.06833999768742564
276.0,0.26099195443428824,0.014913240595571507
277.0,0.26367946692420174,0.014475688217721924
278.0,0.266125526220955,0.0604277656194469
279.0,0.26841613431835454,0.008627678373962992
280.0,0.27044571483437074,0.007697131204052198
281.0,0.27203416984406015,0.033384928085102454
282.0,0.2735010975655569,0.006568468196487639
283.0,0.27483733232289553,0.015823333949957216
284.0,0.27588871599428777,0.05431758552380243
285.0,0.27684408826152085,0.003929183484375501
286.0,0.27784612863829244,0.03805711428070466
287.0,0.2788398116660591,0.10563978252717339
288.0,0.2799831776026499,0.07409528748818661
289.0,0.2812197355072202,0.05283606760767447
290.0,0.2824708992985837,0.04158530553230621
291.0,0.28355942962242264,0.020514031831097124
292.0,0.2845667174386894,0.06634845057557469
293.0,0.28552153885113474,0.021967684316074418
294.0,0.2865587869631078,0.0034926661789232167
295.0,0.2875867710392949,0.03446598554615856
296.0,0.28871728383224127,0.10542447827425716
297.0,0.2897439888221848,0.011343350146367467
298.0,0.2906262360381503,0.04255807829041954
299.0,0.2914117865162721,0.019272436236741273
300.0,0.2919176360337065,0.022156529750918016
301.0,0.29239579309285485,0.05102717810561855
302.0,0.29286088941819,0.024099782033032063
303.0,0.29334765399377083,0.025512509101336945
304.0,0.29391951459222093,0.07725290356570884
305.0,0.2949207620145985,0.04484407659611426
306.0,0.29607737963581976,0.054240831896050404
307.0,0.29704401742031983,0.03976485570875686
308.0,0.2980381299645586,0.101197399025315
309.0,0.29898680871125033,0.03620193849522141
310.0,0.29978165534368145,0.001104602926217031
311.0,0.3003002280047414,0.057819224463120544
312.0,0.300575614599064,0.005072023535307852
313.0,0.30070375254913667,0.018282753980460236
314.0,0.30061115666634036,0.028319661626859446
315.0,0.30081240600091713,0.05322138727253333
316.0,0.3009375260425164,0.029978488289798613
317.0,0.30097335806149683,0.06053073265978059
318.0,0.3005986145176248,0.04288130035735923
319.0,0.30007503700759325,0.02837030226992634
320.0,0.2990154330991405,0.030039008419724785
321.0,0.297547587662554,0.07708029168681628
322.0,0.2957119674115446,0.03454028051719707
323.0,0.2934722626968454,0.05433881431251947
324.0,0.29127779577147067,0.01324574307650926
325.0,0.28920992659970174,0.07399475070746667
326.0,0.28748017253073055,0.03696812045890866
327.0,0.28585055734508336,0.014839739693033503
328.0,0.28462409105708547,0.013859666335639976
329.0,0.28375580428727243,0.057442937622694826
330.0,0.2833079495397641,0.08001684025313206
331.0,0.28335078665319524,0.08276748485410054
332.0,0.28359051413683406,0.03313492634960812
333.0,0.28400048441947157,0.031404416021302846
334.0,0.28472558825309685,0.004682920364746751
335.0,0.28517112557674196,0.024906088948352882
336.0,0.28583441580712354,0.047463185363460385
337.0,0.28663405640421197,0.0230937399137676
338.0,0.2875057016014049,0.01338665642749158
339.0,0.2885003201661403,0.06494740994210635
340.0,0.28941369130957806,0.001327655953035994
341.0,0.29028356872707967,0.01608458702321459
342.0,0.29132486177665207,0.01337158915481827
343.0,0.2926499044433826,0.0005577130717375498
344.0,0.2946107625042564,0.012436604119674267
345.0,0.2969281124272657,0.018715844388861452
346.0,0.29947884692981497,0.04755998436218142
347.0,0.3021900558848224,0.08325526257694915
348.0,0.3048618465185068,0.08098330457838028
349.0,0.30751385172106294,0.02951040159155771
350.0,0.31016951487294514,0.01807362539734065
351.0,0.31275881433300246,0.020764429297164707
352.0,0.31547824801132013,0.03591827926582429
353.0,0.31818732198973143,0.017603490519904192
354.0,0.3208613752274538,0.07369829477863585
355.0,0.3234315593915476,0.12135586371468288
356.0,0.32565177727430494,0.028456516463882166
357.0,0.32738801355244235,0.04906596693913527
358.0,0.3285718904381398,0.029626948537927824
359.0,0.3295564785947154,0.025640894629059392
360.0,0.3304137090346298,0.057710698305140966
361.0,0.33137017403451935,0.026793521906497975
362.0,0.3321268915704651,0.0694533853271782
363.0,0.33251721982000737,0.02998325166561937
364.0,0.3326246796798937,0.013596276040051309
365.0,0.33253598658753974,0.004744626792852397
366.0,0.33232625684532874,0.03904127827515935
367.0,0.33215715057934925,0.03222460473259548
368.0,0.332017390772332,0.04877811428579333
369.0,0.33223076696287923,0.011041471797036828
370.0,0.33261760237742055,0.017468592657687656
371.0,0.33305354961205086,0.01349741119446951
372.0,0.333312506461945,0.03640263728844257
373.0,0.33335952132258245,0.06958525644618181
374.0,0.3332838645964887,0.07249287965720637
375.0,0.3328922628037361,0.06056754157997403
376.0,0.33245958229244577,0.016749345098875625
377.0,0.3321834955297739,0.06625614816450695
378.0,0.33156201909674454,0.045859759822466754
379.0,0.3310257750676254,0.02481897192963785
380.0,0.33010666560994434,0.08993402092337538
381.0,0.32910446674333693,0.00394892385139119
382.0,0.3281939253207224,0.06099684467840512
383.0,0.3272849620643623,0.016349966504741083
384.0,0.32617922518191933,0.009743489165576182
385.0,0.32492668144648457,0.06717592408201711
386.0,0.32355362668851184,0.052126252748025285
387.0,0.3220742129458398,0.0684167655057752
388.0,0.32049172839456647,0.01249978504376565
389.0,0.3188313489686073,0.07360653558436311
390.0,0.31716827147170906,0.014784741363788878
391.0,0.31529067661117083,0.02603571569802547
392.0,0.31330450540793964,0.02322608500533055
393.0,0.31152151455959504,0.07215820967484317
394.0,0.3097515400677056,0.06112579649653868
395.0,0.3079864130451507,0.06611659499344753
396.0,0.30647622605094366,0.05443008280502026
397.0,0.3046694006274527,0.04643445278527017
398.0,0.3030317150000642,0.0068818922372271135
399.0,0.30132711533873446,0.029576613445208885
400.0,0.29965795494154357,0.05232079116048937
401.0,0.2980372501799009,0.029337162255683138
402.0,0.29663735055954693,0.043987184472401214
403.0,0.29533773414449305,0.03617705904867442
404.0,0.29406092603229417,0.03402452196153292
405.0,0.2931021282846798,0.10471339326303182
406.0,0.2919112500686348,0.05147190647289516
407.0,0.29071847995236655,0.038361790492811076
408.0,0.2892652333282433,0.05485930918587933
409.0,0.287554123633285,0.03035608804405326
410.0,0.2860247076796165,0.030125487052942514
411.0,0.2845069686970747,0.04138530915974991
412.0,0.28309279413541544,0.05528751271439645
413.0,0.28148590973676996,0.02625863027090484
414.0,0.2797496793226379,0.055406156588043945
415.0,0.27798888552827977,0.024055872069408867
416.0,0.2762502230536928,0.018513823082386634
417.0,0.2746232294178189,0.06754328617670333
418.0,0.2730779097572818,0.011296649534410244
419.0,0.2717293842232155,0.0035901759942716543
420.0,0.2706258593132441,0.009119155849871587
421.0,0.2694094192750103,0.011865452976342167
422.0,0.2682618311398447,0.05592192375516877
423.0,0.2672935368152378,0.06591550503684192
424.0,0.26652025540682184,0.09574213158398646
425.0,0.2658224843163598,0.024132886471634075
426.0,0.2650982878411086,0.023496038701585238
427.0,0.2642292590361487,0.06390196316966491
428.0,0.26329792991271095,0.07227388391297164
429.0,0.2625173418868116,0.013423933503673033
430.0,0.2614467154358593,0.011240353201314479
431.0,0.26018478351767643,0.11940070329674
432.0,0.2586051513393301,0.024796466195397215
433.0,0.25697974383815136,0.016335527825886344
434.0,0.2551648932800658,0.0680282601022331
435.0,0.25318166284976296,0.02653125847552161
436.0,0.25108287680443586,0.004662786744431744
437.0,0.24900759943650144,0.02525076201001495
438.0,0.2468787457271108,0.03946017097370404
439.0,0.2442338096175456,0.05101656924319109
