time,flux,error
0.0,0.734480280759265,0.06607981566608027
1.0,0.7366161769179912,0.02253047792231082
2.0,0.7386059335200376,0.007597058842477848
3.0,0.7404078638003447,0.006269593330288291
4.0,0.7420630481335765,0.009354532418630913
5.0,0.743494340414943,0.08248970262055326
6.0,0.7448725772896436,0.00434574968529464
7.0,0.7460011609278074,0.05443873181698582
8.0,0.7468258878126958,0.03599682155467649
9.0,0.7473763232902343,0.022508615026506043
10.0,0.7476314434050239,0.013502915415584509
11.0,0.7478682439591164,0.02020907563098672
12.0,0.7480984499570303,0.050033355083829605
13.0,0.7483043884864037,0.06562896219795931
14.0,0.7483583046829124,0.034054350972426796
15.0,0.7484372593153447,0.009003805253353226
16.0,0.7483607408020094,0.12169552830080915
17.0,0.7480061533766688,0.00881801779771402
18.0,0.7476054997680954,0.043553356572072814
19.0,0.7471184879250252,0.01871122030057957
20.0,0.7466492778770175,0.023086053313084685
21.0,0.746195128471229,0.0181620168402927
22.0,0.7458492825405362,0.05701072837310598
23.0,0.7454851072970795,0.04386123486813806
24.0,0.7450175289303996,0.011702105305351578
25.0,0.7445775863469475,0.04297755929720605
26.0,0.7440096942310667,0.004527883162124691
27.0,0.7432777566002082,0.07153904270668746
28.0,0.7423710347953759,0.027198221707824558
29.0,0.7413246962550114,0.004639539430699548
30.0,0.7401107958617181,0.03204119661345874
31.0,0.7386101381783722,0.030680352464407826
32.0,0.7368551804802315,0.02562286224157377
33.0,0.7346407185960481,0.03467237521503262
34.0,0.7322014527971397,0.03448282403016845
35.0,0.7293359425499274,0.026475877550609185
36.0,0.7260606531905146,0.008337899060401995
37.0,0.7224989985390133,0.012130411086243244
38.0,0.7186094887153274,0.0009492991141590154
39.0,0.7146735943978458,0.11247455732195398
40.0,0.7104911795158592,0.012304065778399754
41.0,0.7062264965341742,0.010193664894057146
42.0,0.7018912721479824,0.030098106789442497
43.0,0.6973783387719834,0.00013302608008779445
44.0,0.6928492293110458,0.009804762645080428
45.0,0.6882668888237026,0.05951006476521477
46.0,0.6837551264756097,0.02105741356074733
47.0,0.6793819451664616,0.02236609758831233
48.0,0.6753672286287455,0.022674266487301965
49.0,0.6717450080984189,0.017009314722426873
50.0,0.6683908192369714,0.00756962189607032
51.0,0.6652885337019306,0.01832328170537511
52.0,0.6625454599081414,0.012738886106339505
53.0,0.6601265249716233,0.052804776702734084
54.0,0.6580310474797653,0.09566182895283915
55.0,0.6559985682773828,0.0705483984181844
56.0,0.6541008582340964,0.031222242470037756
57.0,0.6522169903050182,0.020584417749864276
58.0,0.6504036613360362,0.024599712407406233
59.0,0.6486154795331237,0.031952733550034
60.0,0.6469602853435821,0.0021509292765901455
61.0,0.6454165959774913,0.08158875956118555
62.0,0.6440600481472688,0.013904474352943747
63.0,0.6427862310096297,0.08225143932902354
64.0,0.6415096844143392,0.017199030344148058
65.0,0.6402275162701064,0.07834541263748057
66.0,0.6389451429919847,0.0026532206937572725
67.0,0.6376959877446805,0.07720687773548224
68.0,0.6367178259357709,0.02366713270164113
69.0,0.6358657676074826,0.03373056615989811
70.0,0.6350410040335227,0.05205796917271815
71.0,0.6342573361489653,0.049278814981791264
72.0,0.6334625428925386,0.0898926576929013
73.0,0.6327219151416975,0.04902381791411212
74.0,0.6318091843970893,0.030295510148504345
75.0,0.6308267503991363,0.0554492119388845
76.0,0.6297855291429424,0.040915731901659175
77.0,0.6287126277385682,0.04660175052161843
78.0,0.6275403727168994,0.0599005733118913
79.0,0.6262953221881921,0.008301214039148751
80.0,0.6248338112989148,0.03762652110389575
81.0,0.6231944452252841,0.07961163723404874
82.0,0.6213491077434534,0.04147450657425882
83.0,0.619396336260982,0.04711505907772234
84.0,0.6171979027427937,0.09001275679140536
85.0,0.6149521289680985,0.002237286129755919
86.0,0.6128101956882412,0.07144422301131478
87.0,0.6104653797774786,0.027031335069610293
88.0,0.6081239551324571,0.00575997752831945
89.0,0.6058412054523283,0.044193614401833795
90.0,0.6035055271833782,0.08672064648574697
91.0,0.6011214638832941,0.02797984148744358
92.0,0.5987050543496294,0.020879262883565577
93.0,0.5962354153266682,0.03291464537178807
94.0,0.5937027470725424,0.03869170477774503
95.0,0.5909397770918313,0.037192594463045646
96.0,0.5881995508928275,0.05078024791260576
97.0,0.5855425795132481,0.06531584511280662
98.0,0.5828293714962978,0.04503726623126551
99.0,0.5799650870128761,0.025976145285281662
100.0,0.5771151975126368,0.0033007136399274095
101.0,0.5741815654342743,0.08860667773282126
102.0,0.5712292661358153,0.026907872198997426
103.0,0.5682245686075363,0.0022594929435548207
104.0,0.5652852803523125,0.042224698937859434
105.0,0.5624625733935087,0.00014741453941854464
106.0,0.559643594994691,0.04711949235060042
107.0,0.5567251808898831,0.04003966204941615
108.0,0.5536118589802089,0.10619865624223512
109.0,0.5504707870961077,0.01372507249520075
110.0,0.5471253244714608,0.09853523922831722
111.0,0.5436129003985697,0.06089028643264469
112.0,0.5399211217570337,0.037167027995990545
113.0,0.5361118569097163,0.0116406348418081
114.0,0.5319959382051683,0.07334504015417258
115.0,0.5277552077911448,0.009927392784767878
116.0,0.5234676743085894,0.04416652545829228
117.0,0.5191455250926622,0.021052913866014912
118.0,0.5147825460794494,0.0338324171834106
119.0,0.5104436350193458,0.036433630438723795
120.0,0.5061923652771725,0.08695711092957759
121.0,0.5017001992183382,0.021755215471217896
122.0,0.49738776112249944,0.03419402899303212
123.0,0.49318015386839237,0.009991112420811195
124.0,0.4889943993080475,0.0779216874933311
125.0,0.48484305594709787,0.03731763585403446
126.0,0.48081630958403593,0.05439302387182515
127.0,0.4768740130421435,0.029190982164658943
128.0,0.47279567961097174,0.01961114349242779
129.0,0.46895711788834904,0.0640307911565841
130.0,0.46521375362177003,0.0026454445732280087
131.0,0.4617035592955551,0.018319131992401372
132.0,0.45829188240659174,0.007651534450986397
133.0,0.45520684645044796,0.00039048521260146864
134.0,0.4523787678481823,0.01507495735667072
135.0,0.4498548358506446,0.08791820423332398
136.0,0.44746074553393933,0.02583348979803666
137.0,0.4453843631823213,0.05229785622851645
138.0,0.443598257560457,0.016804311984899963
139.0,0.4421922534752133,0.01510770539570598
140.0,0.44099057009169296,0.08175779523642428
141.0,0.43996053400500595,0.01169925695009811
142.0,0.43937012642194234,0.06737939771838296
143.0,0.4389164046054499,0.01405290323421527
144.0,0.4386281463207525,0.061823632731901106
145.0,0.4386155209602096,0.04196610166310668
146.0,0.43878775461881575,0.058349209643057925
147.0,0.4391866921120271,0.04655617050192342
148.0,0.43970952087120296,0.015362327366803262
149.0,0.4404051963684423,0.03658172507056258
150.0,0.4410721428482342,0.03104712720414451
151.0,0.4419622204989822,0.021521582043013632
152.0,0.44293406832014864,0.051735206576975085
153.0,0.4439055839132712,0.019348685920769885
154.0,0.44498780282203704,0.04206230253073833
155.0,0.4460695892369229,0.049829966253753834
156.0,0.4470166736511034,0.014659699521283898
157.0,0.4477468611791687,0.07675772864692233
158.0,0.44841562046063604,0.01270864172701483
159.0,0.44895711336928573,0.025490356519650155
160.0,0.4493800232545843,0.096810923513658
161.0,0.44983937834999393,0.053397168787124305
162.0,0.4501534769098285,0.06147723848798623
163.0,0.4503270411787196,0.03046303553589287
164.0,0.4503678674817572,0.014993944963049398
165.0,0.45031412499636675,0.010507246394272326
166.0,0.45016252834005893,0.07848169384599776
167.0,0.4498952336430131,0.04503344274077725
168.0,0.44954133939938934,0.09745458577563232
169.0,0.44910775705456585,0.058809663216302314
170.0,0.4485339199232314,0.07283069479563349
171.0,0.44778494238545374,0.03914986125073897
172.0,0.446953047916886,0.048647512663140546
173.0,0.44592724036123116,0.030194713397266995
174.0,0.4446458545548872,0.016294900792962926
175.0,0.4431645610943454,0.01824295655307962
176.0,0.4415050239739516,0.030443352611119835
177.0,0.43997023725044476,0.02878204096421824
178.0,0.4383674920549599,0.00647545087350095
179.0,0.43688839349807196,0.10292083476404822
180.0,0.43557667308776793,0.03702638643879981
181.0,0.434251417232195,0.0028287094074572173
182.0,0.4330773410272338,0.08356390713805617
183.0,0.43185243351952995,0.0003699476078589735
184.0,0.43033388599318295,0.038076755072472976
185.0,0.4287522431927177,0.0881285748194068
186.0,0.4268561213222209,0.08343533572087646
187.0,0.424828961025402,0.011169563226440405
188.0,0.42258485981739796,0.0895222674460622
189.0,0.42039949374530833,0.01101887676362732
190.0,0.4183281514378674,0.018598277301183342
191.0,0.4162881189882561,0.06298417843978348
192.0,0.4142549923471019,0.006762084358145773
193.0,0.41213406024575805,0.08392259704955753
194.0,0.40994465460471563,0.04622333805941185
195.0,0.4076769695232932,0.03235068023081106
196.0,0.40531191290048213,0.009754104315041335
197.0,0.40290877175692713,0.013432517993006774
198.0,0.40054568828974185,0.015822762356857364
199.0,0.39825168784719867,0.07405700213869533
200.0,0.3959368297480311,0.022502975008612442
201.0,0.3934955644270484,0.04700478823770434
202.0,0.3911819177878675,0.042085054812633776
203.0,0.3888258192036203,0.060156251225717716
204.0,0.3864089417258278,0.006922888265954337
205.0,0.38392296157273653,0.03573616532397631
206.0,0.38119802651753043,0.04280789361920989
207.0,0.3783092047596087,0.04344798288757817
208.0,0.3752467354360842,0.0359629500471382
209.0,0.3721385464697203,0.023328260243364415
210.0,0.3690583296783419,0.007469642428846706
211.0,0.3659980790478923,0.09475835874099084
212.0,0.3631009367580841,0.048619259830477185
213.0,0.36036949279956715,0.07407696938744039
214.0,0.3577948996457685,0.015755151394283
215.0,0.3553995666276825,0.10877999577122442
216.0,0.3531423191927285,0.016729201080260405
217.0,0.35097753262972825,0.022387870222239786
218.0,0.3488852556647679,0.0424041954664888
219.0,0.3467404801918219,0.07143289264914297
220.0,0.3446423213835909,0.02969205421923717
221.0,0.3424551065555278,0.015183206158034524
222.0,0.3403482905379092,0.008219494212560668
223.0,0.3382473920715922,0.07087827633405246
224.0,0.3361893927902754,0.06038664347274773
225.0,0.33424137957735783,0.026605719196048535
226.0,0.33245726666697856,0.019730007132870545
227.0,0.33062276533262963,0.0546502072384483
228.0,0.32882022167429137,0.040021200571500465
229.0,0.32715864573943376,7.565232690650455e-05
230.0,0.3253817307097195,0.06491570704610415
231.0,0.32364727157736245,0.010030883262211963
232.0,0.3216681410627574,0.05337356118692667
233.0,0.31947778248880704,0.030761580679528125
234.0,0.31715295922339193,0.06841789602137366
235.0,0.31451713520905317,0.026515145219531733
236.0,0.3115941264589264,0.019211857727483808
237.0,0.3083085945824318,0.06799562254883483
238.0,0.30498705856555997,0.06133052377644302
239.0,0.3015905621266974,0.03916640495928732
240.0,0.29823323677970465,0.08304469629596976
241.0,0.2949034901867888,0.059528234808035874
242.0,0.2916070838041732,0.02649350086716893
243.0,0.2881958041172478,0.046950437577288784
244.0,0.2847450177381237,0.03636932011052436
245.0,0.2811863656562925,0.15448444596415897
246.0,0.27768024158872023,0.0455649107052811
247.0,0.2743235866344608,0.013598465437091228
248.0,0.27124728225324973,0.02141929195800782
249.0,0.2684854852883627,0.11000201931592105
250.0,0.26593171306404934,0.06452114296976967
251.0,0.26348957895685104,0.1410311255516175
252.0,0.26129599907999107,0.07986523794620819
253.0,0.25931333448932226,0.015424246436858694
254.0,0.2572953321213365,0.062082607900759014
255.0,0.2553860847804661,0.01946967315155506
256.0,0.2536457836584539,0.04980169135754191
257.0,0.2520310264842508,0.08090060102884386
258.0,0.250523915066062,0.03928636900524082
259.0,0.24904499328285187,0.08361731476084089
260.0,0.2474718391204963,0.005823616197141456
261.0,0.24598062772539525,0.07294787401444275
262.0,0.2444786867460381,0.010099555391883897
263.0,0.24297081614230634,0.01335124213433115
264.0,0.24168885944362192,0.0467067565727422
265.0,0.24061815014214805,0.027250302502160352
266.0,0.2397753253701036,0.04508654077680727
267.0,0.239157242232427,0.05801059372209775
268.0,0.23891918257697872,0.045733421602438845
269.0,0.23914201891633222,0.022644785356977965
270.0,0.2398002319838576,0.035946040327165425
271.0,0.2408771627584551,0.041196331994442836
272.0,0.24205373966650534,0.07074826436727516
273.0,0.24342937081616142,0.0503582731545958
274.0,0.24492332216288415,0.03666969469640815
275.0,0.2465130312593278,0.06241464813783812
276.0,0.24827664675272212,0.016843438896094434
277.0,0.24981871114739898,0.07647329264305835
278.0,0.25124212106903865,0.10966414897482575
279.0,0.2525991082306033,0.0016110877460875997
280.0,0.2538156240674037,0.06821853541815068
281.0,0.2547690276224186,0.03611775209755868
282.0,0.2556658549603586,0.05030334392292324
283.0,0.25649941808049587,0.023568830382131298
284.0,0.2571647819241598,0.0018737901744945587
285.0,0.25778532263435416,0.014770281023330147
286.0,0.25845347091028387,0.025981129098099007
287.0,0.2591318336543449,0.01709236278028316
288.0,0.2599282428830185,0.043472720666736
289.0,0.2608058853436738,0.0018341311232327778
290.0,0.2617141872364321,0.018465106762885135
291.0,0.26253322461577916,0.0036018199153207324
292.0,0.26331483781274634,0.019888655507200086
293.0,0.2640758538858172,0.014909221524874176
294.0,0.2649047152178298,0.017406367917064892
295.0,0.2657395425340735,0.1116678831300946
296.0,0.2666500071605673,0.005620824453968319
297.0,0.26749678317547604,0.029302082154714516
298.0,0.26824941029193317,0.06324868301856124
299.0,0.26893913497778127,0.02349173764244665
300.0,0.26944553043306213,0.08497582751589665
301.0,0.2699361964238294,0.03384459212275596
302.0,0.27042157081145396,0.027738325789126602
303.0,0.27092248401848046,0.007597165267669405
304.0,0.2714800777026885,0.023972848538576473
305.0,0.27232098259459814,0.10497725739472803
306.0,0.27326637968970924,0.0056311190029325504
307.0,0.27408911577324313,0.028946343030574834
308.0,0.27493427868892073,0.03816454363062169
309.0,0.27575416776790973,0.03340864561046649
310.0,0.27647705827980773,0.0061869547172758894
311.0,0.27702386184844924,0.012058945318566109
312.0,0.277413148710952,0.04350445654659051
313.0,0.27770557130562595,0.0026778190225903277
314.0,0.27784595209759816,0.00802368245382124
315.0,0.278169599289883,0.010204200879147439
316.0,0.27842953459804753,0.01939864673964095
317.0,0.27861757177929175,0.015564579945049204
318.0,0.2785240907081134,0.03947961089529671
319.0,0.2783231694382338,0.004032157093158326
320.0,0.27776175153602445,0.09561461299013765
321.0,0.2769206727663401,0.06481547916684922
322.0,0.2758241100164849,0.04804370197660285
323.0,0.2744423616127946,0.029981407689398054
324.0,0.2730682053240118,0.010903250807004435
325.0,0.2717532498962338,0.007781254009403549
326.0,0.270634222966134,0.0280056658549343
327.0,0.2695575565748574,0.0255921657352302
328.0,0.2687239581353158,0.03148554981028304
329.0,0.2681111115364954,0.01238724525531782
330.0,0.2677642713896373,0.0218883777456558
331.0,0.2677385280397821,0.008278869570462487
332.0,0.26784403226031217,0.10651469085039394
333.0,0.26806661161314405,0.0577343259035822
334.0,0.26850524495998723,0.06706979591465288
335.0,0.2687645599997148,0.03673681025481564
336.0,0.269172653324054,0.044946301487416275
337.0,0.26967154203417665,0.02199108339586745
338.0,0.27022093020541915,0.04166576463071974
339.0,0.2708544664801393,0.029771338562222804
340.0,0.27144029840874273,0.023173792154382006
341.0,0.2720023943219707,0.0023608624309868777
342.0,0.27268179879317184,0.008903428216529936
343.0,0.27355489891730267,0.03399223670232137
344.0,0.2748577530177116,0.057199837515318624
345.0,0.27641217835297865,0.002701611806459978
346.0,0.27814374315903256,0.03669311461991695
347.0,0.28000529848678357,0.018286038856160754
348.0,0.2818673091869098,0.0665595751709575
349.0,0.28374273142475837,4.824482628412349e-05
350.0,0.28564652829881554,0.04241357122192202
351.0,0.28753377799230956,0.01910952915219527
352.0,0.289531942900388,0.026016901193430225
353.0,0.2915474686924444,0.024894029466662818
354.0,0.2935603790380195,0.03433822062210648
355.0,0.29552193289725726,0.01511845351631542
356.0,0.2972678310260962,0.08609638381232794
357.0,0.29870693841786694,0.0035320679390300636
358.0,0.29979018367886734,0.0454866102305498
359.0,0.30074921403239097,0.03272104943923391
360.0,0.301629028562165,0.031715048992905115
361.0,0.302578757943359,0.00786919105391622
362.0,0.3034007862397001,0.04332183295735707
363.0,0.30397996181426695,0.03616848555284715
364.0,0.30436649119345055,0.10039312564404573
365.0,0.3046131670723215,0.010679906930809632
366.0,0.30476967257120285,0.02002951414948478
367.0,0.30494796399506824,0.01815852564899381
368.0,0.3051447093344722,0.05275981960407597
369.0,0.30557622453007943,0.005772272307335696
370.0,0.3061205291234301,0.03180666174922433
371.0,0.30668971629107855,0.039682028064854186
372.0,0.30712792426752356,0.04100977014803426
373.0,0.3074104828029064,0.0763370561384422
374.0,0.3075992521415503,0.019101934930389714
375.0,0.3075714011638825,0.04172355091282462
376.0,0.30751102842860195,0.023201015181037968
377.0,0.30754753628858794,0.009923366134902856
378.0,0.3073455495473087,0.057477605567897196
379.0,0.3071841623203089,0.013329513870147778
380.0,0.3067493591137433,0.016587758075685164
381.0,0.3062357543288335,0.10564581430730846
382.0,0.30575998063957327,0.04769353079789184
383.0,0.3052675065035132,0.03820671167612059
384.0,0.30463440146180415,0.07951538503740765
385.0,0.3038949789002155,0.042541128620358346
386.0,0.303065497229997,0.08821472337442246
387.0,0.30214859050777426,0.05611491837902434
388.0,0.30114136802501146,0.026925466447567582
389.0,0.30005980137260485,0.022711207834140542
390.0,0.29895238976164706,0.08952017493643998
391.0,0.2976854220714538,0.05160967005147565
392.0,0.29632902022367896,0.16170166394786445
393.0,0.29508971372989473,0.019788338082854046
394.0,0.293841045604219,0.09356258243352533
395.0,0.29257620198556644,0.006744909439639395
396.0,0.2914611666147493,0.015625841585170223
397.0,0.2901320823977903,0.012219153142658522
398.0,0.2888974308494201,0.02498387755134161
399.0,0.28760330894080555,0.013181144840632486
400.0,0.2863203914880242,0.09695672628908918
401.0,0.28505861551462436,0.020754038268279165
402.0,0.28393385751165334,0.029023604435239932
403.0,0.28286511481827914,0.050717509520930626
404.0,0.2817998299334473,0.006422181808662013
405.0,0.2809346395023874,0.05660800394544207
406.0,0.2799079968259921,0.017778210785361112
407.0,0.27887378428693066,0.008364205984935114
408.0,0.2776657934038996,0.03284168240109693
409.0,0.27628079160257196,0.05108963519082437
410.0,0.2750100705120347,0.056610211691472526
411.0,0.27373806924739036,0.03537867196818766
412.0,0.27252663414770045,0.06939160426438959
413.0,0.27118048036286563,0.02049450939411361
414.0,0.26973886960579313,0.01170760943366659
415.0,0.26827083385757755,0.006870127996721514
416.0,0.26680429323756094,0.0022216733016521997
417.0,0.26540471634460205,0.020784334190539877
418.0,0.26405299615834926,0.046371186473728385
419.0,0.26283203325970816,0.027730371609790073
420.0,0.2617739683555456,0.032528928079942725
421.0,0.2606416014425971,0.009975468281091839
422.0,0.259553742560874,0.0014686430300513973
423.0,0.2585803205327405,0.016890722375566863
424.0,0.2577360459234504,0.02647465688742795
425.0,0.25694449714224843,0.04015955140587209
426.0,0.2561414284079036,0.10404702328338129
427.0,0.25524817427375274,0.05869467638527444
428.0,0.2543161244659577,0.038566977806143786
429.0,0.2534853088073355,0.03887366922828067
430.0,0.2524641356394124,0.026767502209824368
431.0,0.25131597066228906,0.017256807685390726
432.0,0.2499560315299054,0.0659972809250115
433.0,0.24856118278284756,0.017094353259162365
434.0,0.24703733846356277,0.050818716267502985
435.0,0.2453973035142578,0.05855376861045395
436.0,0.24367547471738846,0.014264891782937507
437.0,0.2419610036217511,0.05474926331507373
438.0,0.24020174073430467,0.06558697237046414
