time,flux [mJy],error
0.0,2.3022268617068914e-27,0.0004782838695461686
1.0,2.3032115290730424e-27,0.020077232503689535
2.0,2.304153002434009e-27,0.024763788595978893
3.0,2.3050379144382717e-27,0.09847788346721516
4.0,2.305877099840416e-27,0.0495233014331605
5.0,2.3066469145505824e-27,0.00021737837154830447
6.0,2.3073991249265815e-27,0.019164796038577948
7.0,2.3080759653030275e-27,0.07962021954843346
8.0,2.3086623832716797e-27,0.0080935987469101
9.0,2.3091671746359535e-27,0.05619114679358725
10.0,2.309582151581343e-27,0.01728450224278985
11.0,2.309987338290922e-27,0.03794763500647921
12.0,2.310383675155023e-27,0.012790338669314526
13.0,2.310764358334275e-27,0.005515341284766471
14.0,2.311090593445533e-27,0.016740385064533465
15.0,2.3114168259909054e-27,0.01082912512125744
16.0,2.3116887872485232e-27,0.08579100401247786
17.0,2.3118697733288845e-27,0.11185312920151357
18.0,2.31202933933955e-27,0.036133991488392116
19.0,2.3121550507034434e-27,0.007230478031165018
20.0,2.312277732592433e-27,0.017758655340488587
21.0,2.3123956895368934e-27,0.03957378477780274
22.0,2.312536473032502e-27,0.051989337174646016
23.0,2.312661341451323e-27,0.018507293792861486
24.0,2.3127452750423765e-27,0.07664313158698105
25.0,2.3128287225767774e-27,0.008559037318699782
26.0,2.3128665006062334e-27,0.004502067909960448
27.0,2.3128487229596054e-27,0.007666247773167491
28.0,2.3127713884127892e-27,0.03635376823012395
29.0,2.312643998769296e-27,0.00856325158073105
30.0,2.312455892620912e-27,0.0621553094664139
31.0,2.3121703957624836e-27,0.01379606221851543
32.0,2.3117972607224507e-27,0.07375969944496723
33.0,2.3112763413923997e-27,0.008818154923724819
34.0,2.3106800117165554e-27,0.18180508501267523
35.0,2.309947751158832e-27,0.07621492807301689
36.0,2.3090842428364076e-27,0.0013988184651635767
37.0,2.3081239548935895e-27,0.048019500641717935
38.0,2.3070519680271635e-27,0.058998615779724484
39.0,2.305950865050734e-27,0.013634974327770872
40.0,2.3047593703067103e-27,0.011654435241810762
41.0,2.3035268159386357e-27,0.034133769131364254
42.0,2.302256859484374e-27,0.052356067593564364
43.0,2.3009180626537264e-27,0.05994582764073503
44.0,2.2995581875597996e-27,0.020233060217827586
45.0,2.2981654333591094e-27,0.03732737837595377
46.0,2.2967758184195207e-27,0.04178302522288102
47.0,2.2954086903976054e-27,0.053218646778620496
48.0,2.2941300192166463e-27,0.017115651923952233
49.0,2.2929496202375716e-27,0.06776296801762252
50.0,2.2918316420875857e-27,0.002689288866626678
51.0,2.290771964077418e-27,0.07767211453981185
52.0,2.289804967916692e-27,0.029779890398319322
53.0,2.2889219943133743e-27,0.057166405040663996
54.0,2.2881243800261995e-27,0.011329341180481418
55.0,2.287335295934936e-27,0.010274236550388166
56.0,2.2865764744553825e-27,0.07244036091813733
57.0,2.285812110006496e-27,0.047140299268318045
58.0,2.2850598569964866e-27,0.012482313913477101
59.0,2.2843078519172224e-27,0.026666030438005268
60.0,2.2835917342465614e-27,0.04598640566832356
61.0,2.2829076926202012e-27,0.000836600811933975
62.0,2.282280545101982e-27,0.026544880724747796
63.0,2.2816784988287723e-27,0.019907592308384906
64.0,2.28107465747601e-27,0.009840783702623035
65.0,2.2804665609248133e-27,0.06282617784849304
66.0,2.279855237185367e-27,0.007500080441054094
67.0,2.279251609340341e-27,0.08759313838378924
68.0,2.2787286015084805e-27,0.028554906057713804
69.0,2.2782444489989136e-27,0.03803777809330223
70.0,2.277770066816114e-27,0.028200668940210852
71.0,2.2773097929407045e-27,0.10507647485883086
72.0,2.276847926922852e-27,0.01169530489434427
73.0,2.2764043625485764e-27,0.017803098287142542
74.0,2.275911991453967e-27,0.010669057652033291
75.0,2.275401819901542e-27,0.08232328131998415
76.0,2.274877528959431e-27,0.04391342156642996
77.0,2.2743461900770232e-27,0.034756765760654056
78.0,2.2737862744100735e-27,0.04465140255515446
79.0,2.2732052559396903e-27,0.025867937298502394
80.0,2.2725605659056114e-27,0.05350237338556096
81.0,2.2718653958706888e-27,0.030735209904031488
82.0,2.2711123552992104e-27,0.12767392537891442
83.0,2.2703307624968243e-27,0.022971040336355327
84.0,2.269477750102491e-27,0.14625949919436518
85.0,2.2686105055677703e-27,0.034220440560585666
86.0,2.2677726751614616e-27,0.0050532739316090656
87.0,2.266870411542456e-27,0.04812079417485065
88.0,2.2659656432522643e-27,0.050704321962451865
89.0,2.2650757595136547e-27,0.00378693585585471
90.0,2.2641679065820145e-27,0.05791910787680831
91.0,2.2632440549208836e-27,0.02692356298809469
92.0,2.2623087261411422e-27,0.04740244943392166
93.0,2.26135502226168e-27,0.04847058811818683
94.0,2.260379098838828e-27,0.0683455663721438
95.0,2.2593298950760493e-27,0.06353913822626701
96.0,2.2582834757118454e-27,0.03797938638184968
97.0,2.2572590197383146e-27,0.04597046725707784
98.0,2.25621459556353e-27,0.049085969222363704
99.0,2.2551221419145907e-27,0.039617972375633
100.0,2.2540313503501405e-27,0.04757842124655891
101.0,2.2529120636024224e-27,0.00951727116080532
102.0,2.2517828870938866e-27,0.0329480555109216
103.0,2.2506327727175106e-27,0.01422037369821639
104.0,2.2494967954541318e-27,0.004332312063678798
105.0,2.2483905009616395e-27,0.07360341686601134
106.0,2.2472798734047605e-27,0.005780752906718029
107.0,2.2461341045558945e-27,0.15896965832722912
108.0,2.2449247301346074e-27,0.07715607517948707
109.0,2.2437027569430416e-27,0.03133711157100213
110.0,2.2424161827660537e-27,0.027040839881290163
111.0,2.2410766604727104e-27,0.07036872759360863
112.0,2.23968010224492e-27,0.00010186457907353131
113.0,2.2382443074837126e-27,0.04802572362250254
114.0,2.2367110356845013e-27,0.0032677775890675026
115.0,2.235133982429086e-27,0.0003625224084240714
116.0,2.233536644071364e-27,0.010240030290392372
117.0,2.2319233714215183e-27,0.04379254078145893
118.0,2.2302933887038095e-27,0.0339745047363571
119.0,2.228665401785766e-27,0.02640085901603433
120.0,2.227057400263526e-27,0.014822471024569479
121.0,2.2253683796371605e-27,0.034027407519745534
122.0,2.223723471790489e-27,0.03897572856602105
123.0,2.2220993820454175e-27,0.09555235611169198
124.0,2.220472191836825e-27,0.06904619162602771
125.0,2.2188471798256544e-27,0.0024498786217231434
126.0,2.2172526855440004e-27,0.0700384942198226
127.0,2.215677111287466e-27,0.02041964718613757
128.0,2.2140539979385413e-27,0.011303870581595564
129.0,2.212496916191124e-27,0.03248706516455759
130.0,2.2109626938888665e-27,0.0546664169226718
131.0,2.2094942425473554e-27,0.011556452184470989
132.0,2.2080507904163548e-27,0.05689406197630936
133.0,2.2067016679553214e-27,0.03995148438260246
134.0,2.2054254788452404e-27,0.0390251068022025
135.0,2.2042366674168046e-27,0.10797032691723618
136.0,2.2030833253066657e-27,0.004362948471763987
137.0,2.2020235433057504e-27,0.01533953720127693
138.0,2.20105067620511e-27,0.029343481332401666
139.0,2.200192505749325e-27,0.02325995408382393
140.0,2.1993969442090048e-27,0.0013890324985246657
141.0,2.198654164605218e-27,0.017978473352026066
142.0,2.1980455006510077e-27,0.08916761435043646
143.0,2.19748103443304e-27,0.04617593942577547
144.0,2.19697148797932e-27,0.00652560376060379
145.0,2.1965520522929924e-27,0.06210603250295082
146.0,2.1961971348763697e-27,0.03801094993373408
147.0,2.1959204556160846e-27,0.06976897218768548
148.0,2.195691005589357e-27,0.01524864580320669
149.0,2.1955230970453717e-27,0.027787835816800995
150.0,2.1953565004442505e-27,0.0530043913827301
151.0,2.1952680383938078e-27,0.07717184464661725
152.0,2.1952158651112175e-27,0.02424334611349862
153.0,2.195176637285722e-27,0.03381150777810773
154.0,2.1951840962197895e-27,0.019878972570697012
155.0,2.195205067112893e-27,0.0719786195667567
156.0,2.1951981242274676e-27,0.03405835367240014
157.0,2.195138196972681e-27,0.07539428883788557
158.0,2.195072041997502e-27,0.013136666608263514
159.0,2.1949804184136866e-27,0.02180827079410031
160.0,2.194866185635412e-27,4.455974906806374e-05
161.0,2.1947757912171854e-27,0.05093561176903502
162.0,2.194653922345206e-27,0.051875798662690334
163.0,2.1945011821517995e-27,0.08023829463598159
164.0,2.1943184390716673e-27,0.004237043489091671
165.0,2.1941166421518524e-27,0.06743402671941416
166.0,2.1938944672985964e-27,0.09495383695808662
167.0,2.193646478004173e-27,0.03674640122483629
168.0,2.1933802338498352e-27,0.005326668604754928
169.0,2.1930965192486352e-27,0.03332831824284594
170.0,2.1927753861378012e-27,0.026072710015688096
171.0,2.1924049734622567e-27,0.0003078430340571419
172.0,2.192013592080485e-27,0.048296899653569265
173.0,2.1915679478728766e-27,0.03762378892075115
174.0,2.1910502122873902e-27,0.004459038172699153
175.0,2.1904766747236915e-27,0.006366121496400483
176.0,2.1898527392952834e-27,0.04134351698099907
177.0,2.1892679222503964e-27,0.005882829307627232
178.0,2.1886623287740918e-27,0.035461810635736724
179.0,2.1880932560126246e-27,0.014762472824545592
180.0,2.1875733691768927e-27,0.0114977995996427
181.0,2.1870483260517066e-27,0.052125004026175564
182.0,2.1865672468676286e-27,0.06494092910643033
183.0,2.1860690500105315e-27,0.02713121648040337
184.0,2.185480148033599e-27,0.02369893785547246
185.0,2.1848700232450003e-27,0.040301522696391354
186.0,2.184163095939756e-27,0.07924283489551794
187.0,2.183414361763431e-27,0.0007745446244472385
188.0,2.1825985754993943e-27,0.09798373569073525
189.0,2.1817988660847368e-27,0.0030433239631124562
190.0,2.181032386845818e-27,0.041120615300895925
191.0,2.1802745652678217e-27,0.010286674401873431
192.0,2.179517154536906e-27,0.016725915312011435
193.0,2.1787314719918393e-27,0.03599770444096716
194.0,2.1779217928144573e-27,0.050743253854211884
195.0,2.1770835683396146e-27,0.06285044430819901
196.0,2.1762101426971824e-27,0.08666116029689758
197.0,2.1753186029393616e-27,0.1353419776013207
198.0,2.174433091383682e-27,0.026676273230733894
199.0,2.1735625997049623e-27,0.10072829964423968
200.0,2.1726811605273363e-27,0.06925209590549107
201.0,2.1717584190092706e-27,0.04296164397609988
202.0,2.1708716243271453e-27,0.03300271748869429
203.0,2.1699705030338204e-27,0.021092958069205282
204.0,2.16904875180432e-27,0.000535472834558323
205.0,2.168102717265895e-27,0.03228846692029091
206.0,2.1670791879549657e-27,0.04780133533184518
207.0,2.1659996595057703e-27,0.028950429349919683
208.0,2.1648605952089093e-27,0.0030899155085332784
209.0,2.1637017643440348e-27,0.016133769756589155
210.0,2.1625478033882347e-27,0.053427694544412124
211.0,2.161398265530434e-27,0.06310294671862768
212.0,2.1602966654964478e-27,0.011736298521789677
213.0,2.1592424215884946e-27,0.012107771505260708
214.0,2.1582304264036575e-27,0.06689934027827857
215.0,2.157265256934215e-27,0.04770081059459687
216.0,2.156333293939867e-27,0.026877129761389913
217.0,2.1554208761304915e-27,0.009275400731483507
218.0,2.1545232775020816e-27,0.04077985550914551
219.0,2.1536043287130735e-27,0.06214405435715235
220.0,2.1526958056709248e-27,0.0897273177653902
221.0,2.1517583815435678e-27,0.00460729701482572
222.0,2.150844795985427e-27,0.07217304985076638
223.0,2.1499339921971633e-27,0.007129499328109884
224.0,2.149037993826728e-27,0.0014421782657807352
225.0,2.1481766351200996e-27,0.03742541115632887
226.0,2.147365359997332e-27,0.050160823692965165
227.0,2.146538009482165e-27,0.03594486387203177
228.0,2.1457182870158827e-27,0.048217484711877916
229.0,2.1449385799127747e-27,0.05743804031490064
230.0,2.144121919546007e-27,0.03521000164144607
231.0,2.1433168216160204e-27,0.050523828763339065
232.0,2.1424376703601055e-27,0.065094107599575
233.0,2.1414954540957162e-27,0.08552172711660358
234.0,2.140513868040822e-27,0.013176112788910038
235.0,2.1394398179865704e-27,0.06791302415475452
236.0,2.1382807023434548e-27,0.07520044202138979
237.0,2.1370142482875067e-27,0.051348330971625084
238.0,2.1357382267258267e-27,0.031066324969968
239.0,2.134439657774898e-27,0.009163605311102123
240.0,2.1331514374197502e-27,0.019323392815148097
241.0,2.1318679490648754e-27,0.020355928217388873
242.0,2.1305902662104927e-27,0.02352976439308556
243.0,2.1292724821013113e-27,0.02118428702511073
244.0,2.1279371760309035e-27,0.009007755371771136
245.0,2.126563900092903e-27,0.03764856780613421
246.0,2.1252014185281203e-27,0.04429409202198508
247.0,2.123879582063446e-27,0.013489797890662878
248.0,2.1226372552237507e-27,0.07059340483336178
249.0,2.1214843725317525e-27,0.11861031687720736
250.0,2.1203885536336815e-27,0.045958144358719984
251.0,2.119320786877223e-27,0.04653933087829342
252.0,2.1183233358714473e-27,0.015147273050654326
253.0,2.1173860679922218e-27,0.04952102429286067
254.0,2.116436281342941e-27,0.061447592405678424
255.0,2.1155183849381283e-27,0.020446526001136424
256.0,2.1146507488801834e-27,0.04175038702074753
257.0,2.1138199738469984e-27,0.02709853061920392
258.0,2.1130209441737906e-27,0.02768234836766825
259.0,2.1122309753351223e-27,0.0051403005323820364
260.0,2.111415308077993e-27,0.018205389346612096
261.0,2.110629150854923e-27,0.1456782446078284
262.0,2.1098453966414517e-27,0.05988139622212122
263.0,2.1090651218420634e-27,0.08634346040678013
264.0,2.108356795362235e-27,0.05274053759047013
265.0,2.107713774172715e-27,0.04978558791626511
266.0,2.1071398774307355e-27,0.07240519396096647
267.0,2.1066335762930146e-27,0.11000348779603693
268.0,2.106243154926994e-27,0.023733462344168305
269.0,2.1059950949508818e-27,0.015068058331332077
270.0,2.1058843947340623e-27,0.12965948387099713
271.0,2.105907543404751e-27,0.008925071894150146
272.0,2.1059692564746946e-27,0.04521117136590522
273.0,2.1060993387484647e-27,0.03610097074998609
274.0,2.106272654941605e-27,0.027398765449873155
275.0,2.1064824030697252e-27,0.04044782834260498
276.0,2.1067533071693743e-27,0.01412509726656385
277.0,2.1069690785309224e-27,0.0815090364061596
278.0,2.107162577227109e-27,0.04644650424547309
279.0,2.1073508184722274e-27,0.03879163168503236
280.0,2.107511690395058e-27,0.08936762797310899
281.0,2.107608067077409e-27,0.08626085592308227
282.0,2.10770216878077e-27,0.13010373274349127
283.0,2.1077910689042856e-27,0.025577197800999443
284.0,2.1078417168008695e-27,0.16248553920564207
285.0,2.1078892470769292e-27,0.025961990604382743
286.0,2.107959335246703e-27,0.052118214907506094
287.0,2.1080398226888892e-27,0.0016237545568923385
288.0,2.108162662106603e-27,0.02143848898504174
289.0,2.1083174181362065e-27,0.04491281403827528
290.0,2.1084892506624235e-27,0.06674674764773332
291.0,2.1086420267686153e-27,0.015607311997915266
292.0,2.1087904773094212e-27,0.01968663022157561
293.0,2.1089384776991962e-27,0.10315406821182789
294.0,2.109112758335442e-27,0.07152497545864443
295.0,2.1092949981432713e-27,0.06579525408925463
296.0,2.109507562726388e-27,0.0012079941748417058
297.0,2.109708883815626e-27,0.03646893852741797
298.0,2.1098896069851976e-27,0.018275182403016205
299.0,2.1100582873009452e-27,0.07013809066672874
300.0,2.1101779490481274e-27,0.0062817697279078
301.0,2.11029858439084e-27,0.004332896613560983
302.0,2.110422579355273e-27,0.08349239899720755
303.0,2.1105558333802665e-27,0.03073686144929043
304.0,2.110709647712445e-27,0.10757166789941436
305.0,2.1109509328234997e-27,0.004300367560882264
306.0,2.1112252055001287e-27,0.029104073196109432
307.0,2.1114645191469857e-27,0.06301850100776357
308.0,2.111713704683033e-27,0.001827998044242571
309.0,2.1119591479900207e-27,0.005470688872031674
310.0,2.1121799647962787e-27,0.05267051147226666
311.0,2.1123515492656208e-27,0.018036699700574213
312.0,2.112478970377735e-27,0.049791190062904
313.0,2.1125799760018965e-27,0.07157831876324196
314.0,2.1126380029818827e-27,0.038968883865784225
315.0,2.1127544074070185e-27,0.007305437441315703
316.0,2.1128556592310652e-27,0.008140727664705054
317.0,2.112940252416785e-27,0.015537977383401541
318.0,2.1129444034297408e-27,0.06843822719211766
319.0,2.1129189175645654e-27,0.028862993851869537
320.0,2.112784669796959e-27,0.021683777631223977
321.0,2.1125642037345404e-27,0.055875043207878894
322.0,2.1122636707596752e-27,0.013571921389661507
323.0,2.1118743329556408e-27,0.005172593252638899
324.0,2.1114847191508642e-27,0.013771627117270242
325.0,2.111110365107074e-27,0.04534718753741818
326.0,2.1107929023695254e-27,0.001416786907537112
327.0,2.110485678015185e-27,0.009001228446349928
328.0,2.1102487554594446e-27,0.008257978262809029
329.0,2.110074447976348e-27,0.029309357675788707
330.0,2.109975306363836e-27,0.02300757991292919
331.0,2.1099666793743804e-27,0.003032730197319699
332.0,2.1099904479117978e-27,0.07881906186851685
333.0,2.1100429848274534e-27,0.05392446097687192
334.0,2.1101547822833427e-27,0.04782477822692406
335.0,2.110209305264312e-27,0.047275973717665884
336.0,2.1103082174098163e-27,0.03881804091362151
337.0,2.11043742320447e-27,0.024514775339121678
338.0,2.1105863320387732e-27,0.012824655668029353
339.0,2.1107652401777823e-27,0.05007631841321182
340.0,2.1109331058917814e-27,0.01801903397571519
341.0,2.1110947446162885e-27,0.03690974934323165
342.0,2.1112915117950363e-27,0.01052221020267591
343.0,2.111546024654145e-27,0.013630426364598651
344.0,2.111930484612154e-27,0.07333380824262814
345.0,2.1123930064665314e-27,0.10283880057805637
346.0,2.112911748483202e-27,0.055527015558769516
347.0,2.113473108823322e-27,0.01874434739705327
348.0,2.114037619283486e-27,0.044054471848692316
349.0,2.1146093272008204e-27,0.003048233624330078
350.0,2.1151941574880427e-27,0.059664586055339724
351.0,2.1157798017176587e-27,0.0006478359316429549
352.0,2.1164064226929173e-27,0.027156917240658107
353.0,2.1170455216920956e-27,0.032863347380529054
354.0,2.1176907566435564e-27,0.031909821834238274
355.0,2.118326689382083e-27,0.03413585979120504
356.0,2.1189042811586162e-27,0.010278084624830347
357.0,2.1193972676207004e-27,0.023773947596024584
358.0,2.119792624636655e-27,0.13424540353290224
359.0,2.120159739554457e-27,0.04954393590729861
360.0,2.1205105483902845e-27,0.021115446944575733
361.0,2.1208874070105614e-27,0.04766378097165427
362.0,2.121228136331675e-27,0.07158093846863353
363.0,2.1214969525835547e-27,0.021417905004903346
364.0,2.1217087906122128e-27,0.06840580554831678
365.0,2.1218801262481676e-27,0.004793774264353704
366.0,2.1220266282614664e-27,0.027208635724415276
367.0,2.122181849837113e-27,0.05405352732527723
368.0,2.1223438812320745e-27,0.0020753721565562873
369.0,2.1225755909474472e-27,0.12846158817852696
370.0,2.1228378271744512e-27,0.016138022284033337
371.0,2.1231031596977162e-27,0.02120548308634151
372.0,2.1233257057010632e-27,0.07169268314288486
373.0,2.1235008618103133e-27,0.020571321399132484
374.0,2.1236497320380082e-27,5.920045022799335e-05
375.0,2.1237366148331905e-27,0.01698468308262523
376.0,2.1238160772647995e-27,0.03516352245584544
377.0,2.1239248463793225e-27,0.0018482031897467414
378.0,2.1239589770450103e-27,0.09982352291837696
379.0,2.124000684711525e-27,0.05098357223247279
380.0,2.1239553184269887e-27,0.01205153173234453
381.0,2.1238829142806188e-27,0.03322750495551311
382.0,2.123820537094064e-27,0.09916371194384682
383.0,2.123752619010671e-27,0.10643324817796446
384.0,2.123640819357366e-27,0.014083471353912226
385.0,2.1234938983674944e-27,0.031004752333641545
386.0,2.1233139456741772e-27,0.1264862627427022
387.0,2.1231005562403467e-27,0.013915270120851059
388.0,2.122853091786796e-27,0.1129481696636429
389.0,2.1225779355219966e-27,0.0751384213376911
390.0,2.1222921348577237e-27,0.03395785838007186
391.0,2.121956208385788e-27,0.039733745117003616
392.0,2.1215905575673426e-27,0.027971420001120812
393.0,2.1212559578172132e-27,0.020773549601700893
394.0,2.1209126124294112e-27,0.004341868369623219
395.0,2.1205577337707076e-27,0.05865948008693514
396.0,2.1202407672770343e-27,0.05482755028481848
397.0,2.1198526370760822e-27,0.023338770465234124
398.0,2.1194866014191388e-27,0.017397735257192674
399.0,2.119096641692446e-27,0.029586135290582922
400.0,2.1187042502893738e-27,0.006042896585825032
401.0,2.118313163274499e-27,0.09947936336130542
402.0,2.117958636892871e-27,0.003836671906760428
403.0,2.1176162263439968e-27,0.004138929353593907
404.0,2.1172699555700352e-27,0.07744220995476987
405.0,2.1169778842075243e-27,0.024813800277312753
406.0,2.1166307835310314e-27,0.03481835605153627
407.0,2.116275950106266e-27,0.030563003367195675
408.0,2.1158638698293344e-27,0.0978867680753603
