time,flux [mJy],error
0.0,6.378607161298033e-34,0.0004782838695461686
1.0,6.381335305260601e-34,0.020077232503689535
2.0,6.3839437748351325e-34,0.024763788595978893
3.0,6.386395534104123e-34,0.09847788346721516
4.0,6.388720602108848e-34,0.0495233014331605
5.0,6.390853469944254e-34,0.00021737837154830447
6.0,6.3929375627723575e-34,0.019164796038577948
7.0,6.394812833599948e-34,0.07962021954843346
8.0,6.3964375778493416e-34,0.0080935987469101
9.0,6.397836165392851e-34,0.05619114679358725
10.0,6.398985910867402e-34,0.01728450224278985
11.0,6.4001085312704446e-34,0.03794763500647921
12.0,6.401206632070887e-34,0.012790338669314526
13.0,6.402261362381679e-34,0.005515341284766471
14.0,6.403165237517336e-34,0.016740385064533465
15.0,6.404069105543886e-34,0.01082912512125744
16.0,6.40482260818704e-34,0.08579100401247786
17.0,6.405324052735138e-34,0.11185312920151357
18.0,6.405766150303914e-34,0.036133991488392116
19.0,6.406114449343996e-34,0.007230478031165018
20.0,6.406454354845356e-34,0.017758655340488587
21.0,6.406781169297561e-34,0.03957378477780274
22.0,6.407171227561677e-34,0.051989337174646016
23.0,6.407517191117121e-34,0.018507293792861486
24.0,6.407749739617823e-34,0.07664313158698105
25.0,6.407980941437842e-34,0.008559037318699782
26.0,6.408085610188449e-34,0.004502067909960448
27.0,6.4080363549973205e-34,0.007666247773167491
28.0,6.407822089973164e-34,0.03635376823012395
29.0,6.4074691410497645e-34,0.00856325158073105
30.0,6.406947969463626e-34,0.0621553094664139
31.0,6.406156964747284e-34,0.01379606221851543
32.0,6.405123147499265e-34,0.07375969944496723
33.0,6.403679875411536e-34,0.008818154923724819
34.0,6.402027669538994e-34,0.18180508501267523
35.0,6.399998850174961e-34,0.07621492807301689
36.0,6.397606392480685e-34,0.0013988184651635767
37.0,6.394945794756434e-34,0.048019500641717935
38.0,6.391975721208629e-34,0.058998615779724484
39.0,6.388924977840283e-34,0.013634974327770872
40.0,6.385623792786242e-34,0.011654435241810762
41.0,6.382208846913766e-34,0.034133769131364254
42.0,6.37869027388848e-34,0.052356067593564364
43.0,6.374980969999479e-34,0.05994582764073503
44.0,6.3712132661485385e-34,0.020233060217827586
45.0,6.367354466624383e-34,0.03732737837595377
46.0,6.363504364815331e-34,0.04178302522288102
47.0,6.359716565821216e-34,0.053218646778620496
48.0,6.356173847556794e-34,0.017115651923952233
49.0,6.3529034047058525e-34,0.06776296801762252
50.0,6.349805906560779e-34,0.002689288866626678
51.0,6.346869936237109e-34,0.07767211453981185
52.0,6.344190752557017e-34,0.029779890398319322
53.0,6.34174436387003e-34,0.057166405040663996
54.0,6.339534473833235e-34,0.011329341180481418
55.0,6.337348217769979e-34,0.010274236550388166
56.0,6.335245808053484e-34,0.07244036091813733
57.0,6.3331280408479125e-34,0.047140299268318045
58.0,6.331043829896957e-34,0.012482313913477101
59.0,6.328960305869107e-34,0.026666030438005268
60.0,6.326976212390577e-34,0.04598640566832356
61.0,6.325080989600372e-34,0.000836600811933975
62.0,6.323343399045141e-34,0.026544880724747796
63.0,6.321675354625364e-34,0.019907592308384906
64.0,6.32000233671341e-34,0.009840783702623035
65.0,6.318317529242547e-34,0.06282617784849304
66.0,6.316623780443435e-34,0.007500080441054094
67.0,6.314951354081339e-34,0.08759313838378924
68.0,6.313502295538409e-34,0.028554906057713804
69.0,6.312160890520489e-34,0.03803777809330223
70.0,6.310846555413585e-34,0.028200668940210852
71.0,6.309571309135002e-34,0.10507647485883086
72.0,6.308291651626858e-34,0.01169530489434427
73.0,6.307062701108857e-34,0.017803098287142542
74.0,6.305698525474244e-34,0.010669057652033291
75.0,6.304285031447258e-34,0.08232328131998415
76.0,6.302832417887067e-34,0.04391342156642996
77.0,6.301360277127711e-34,0.034756765760654056
78.0,6.299808960816389e-34,0.04465140255515446
79.0,6.298199176551564e-34,0.025867937298502394
80.0,6.296412982264376e-34,0.05350237338556096
81.0,6.294486926827863e-34,0.030735209904031488
82.0,6.2924005338394585e-34,0.12767392537891442
83.0,6.290235033328001e-34,0.022971040336355327
84.0,6.287871655913867e-34,0.14625949919436518
85.0,6.285468846576621e-34,0.034220440560585666
86.0,6.283147532757152e-34,0.0050532739316090656
87.0,6.2806476986715995e-34,0.04812079417485065
88.0,6.278140925081593e-34,0.050704321962451865
89.0,6.2756753910014245e-34,0.00378693585585471
90.0,6.273160071026888e-34,0.05791910787680831
91.0,6.270600424573412e-34,0.02692356298809469
92.0,6.26800897932887e-34,0.04740244943392166
93.0,6.265366623574762e-34,0.04847058811818683
94.0,6.262662705799574e-34,0.0683455663721438
95.0,6.259755755686952e-34,0.06353913822626701
96.0,6.2568565200984644e-34,0.03797938638184968
97.0,6.25401813682795e-34,0.04597046725707784
98.0,6.251124429161028e-34,0.049085969222363704
99.0,6.248097649835144e-34,0.039617972375633
100.0,6.245075475521998e-34,0.04757842124655891
101.0,6.241974351743411e-34,0.00951727116080532
102.0,6.238845827146849e-34,0.0329480555109216
103.0,6.235659291571452e-34,0.01422037369821639
104.0,6.232511924633909e-34,0.004332312063678798
105.0,6.229446797521682e-34,0.07360341686601134
106.0,6.226369665113197e-34,0.005780752906718029
107.0,6.223195169364697e-34,0.15896965832722912
108.0,6.219844446430906e-34,0.07715607517948707
109.0,6.216458817029962e-34,0.03133711157100213
110.0,6.212894202527641e-34,0.027040839881290163
111.0,6.209182888653601e-34,0.07036872759360863
112.0,6.205313549597089e-34,0.00010186457907353131
113.0,6.2013355008225215e-34,0.04802572362250254
114.0,6.197087379735352e-34,0.0032677775890675026
115.0,6.192717956653699e-34,0.0003625224084240714
116.0,6.18829233116168e-34,0.010240030290392372
117.0,6.183822557722496e-34,0.04379254078145893
118.0,6.179306486952538e-34,0.0339745047363571
119.0,6.174795945794906e-34,0.02640085901603433
120.0,6.170340776673331e-34,0.014822471024569479
121.0,6.165661134001224e-34,0.034027407519745534
122.0,6.161103711296723e-34,0.03897572856602105
123.0,6.156603967743726e-34,0.09555235611169198
124.0,6.15209563396917e-34,0.06904619162602771
125.0,6.147593335162716e-34,0.0024498786217231434
126.0,6.143175589538783e-34,0.0700384942198226
127.0,6.1388102642083175e-34,0.02041964718613757
128.0,6.134313225882836e-34,0.011303870581595564
129.0,6.129999136359339e-34,0.03248706516455759
130.0,6.1257483817847244e-34,0.0546664169226718
131.0,6.1216798538743e-34,0.011556452184470989
132.0,6.117680589400007e-34,0.05689406197630936
133.0,6.113942677061935e-34,0.03995148438260246
134.0,6.110406835684991e-34,0.0390251068022025
135.0,6.10711308509204e-34,0.10797032691723618
136.0,6.103917606676979e-34,0.004362948471763987
137.0,6.100981348233951e-34,0.01533953720127693
138.0,6.098285898381309e-34,0.029343481332401666
139.0,6.095908229913473e-34,0.02325995408382393
140.0,6.093704027268311e-34,0.0013890324985246657
141.0,6.091646063572905e-34,0.017978473352026066
142.0,6.089959684041101e-34,0.08916761435043646
143.0,6.088395759859637e-34,0.04617593942577547
144.0,6.086983997746714e-34,0.00652560376060379
145.0,6.085821898773319e-34,0.06210603250295082
146.0,6.084838555727073e-34,0.03801094993373408
147.0,6.08407198126806e-34,0.06976897218768548
148.0,6.083436261301454e-34,0.01524864580320669
149.0,6.082971049701797e-34,0.027787835816800995
150.0,6.082509473003761e-34,0.0530043913827301
151.0,6.082264377840532e-34,0.07717184464661725
152.0,6.08211982524257e-34,0.02424334611349862
153.0,6.082011139650898e-34,0.03381150777810773
154.0,6.082031805559653e-34,0.019878972570697012
155.0,6.0820899080391066e-34,0.0719786195667567
156.0,6.082070671907589e-34,0.03405835367240014
157.0,6.081904635960874e-34,0.07539428883788557
158.0,6.081721345336716e-34,0.013136666608263514
159.0,6.081467490750277e-34,0.02180827079410031
160.0,6.081150994565789e-34,4.455974906806374e-05
161.0,6.080900545536185e-34,0.05093561176903502
162.0,6.080562892600031e-34,0.051875798662690334
163.0,6.080139706810791e-34,0.08023829463598159
164.0,6.079633394275308e-34,0.004237043489091671
165.0,6.079074290696391e-34,0.06743402671941416
166.0,6.07845872750685e-34,0.09495383695808662
167.0,6.077771642182791e-34,0.03674640122483629
168.0,6.077033979488571e-34,0.005326668604754928
169.0,6.076247912738555e-34,0.03332831824284594
170.0,6.075358173332519e-34,0.026072710015688096
171.0,6.074331898735448e-34,0.0003078430340571419
172.0,6.073247527717937e-34,0.048296899653569265
173.0,6.072012814761834e-34,0.03762378892075115
174.0,6.070578363636199e-34,0.004459038172699153
175.0,6.0689893061580094e-34,0.006366121496400483
176.0,6.06726061509892e-34,0.04134351698099907
177.0,6.065640306408837e-34,0.005882829307627232
178.0,6.063962434019698e-34,0.035461810635736724
179.0,6.062385746833925e-34,0.014762472824545592
180.0,6.0609453354007075e-34,0.0114977995996427
181.0,6.059490637823328e-34,0.052125004026175564
182.0,6.058157747837658e-34,0.06494092910643033
183.0,6.056777431200199e-34,0.02713121648040337
184.0,6.055145804695513e-34,0.02369893785547246
185.0,6.053455377739519e-34,0.040301522696391354
186.0,6.051496747316624e-34,0.07924283489551794
187.0,6.049422285734035e-34,0.0007745446244472385
188.0,6.047162047964932e-34,0.09798373569073525
189.0,6.0449463531156805e-34,0.0030433239631124562
190.0,6.042822726620102e-34,0.041120615300895925
191.0,6.040723087255799e-34,0.010286674401873431
192.0,6.038624586194665e-34,0.016725915312011435
193.0,6.036447754540137e-34,0.03599770444096716
194.0,6.034204437217632e-34,0.050743253854211884
195.0,6.031882031582054e-34,0.06285044430819901
196.0,6.0294620967136254e-34,0.08666116029689758
197.0,6.026991974425328e-34,0.1353419776013207
198.0,6.024538554024228e-34,0.026676273230733894
199.0,6.022126748068835e-34,0.10072829964423968
200.0,6.0196846106999374e-34,0.06925209590549107
201.0,6.0171280400365255e-34,0.04296164397609988
202.0,6.014671064573294e-34,0.03300271748869429
203.0,6.012174395443763e-34,0.021092958069205282
204.0,6.009620568498548e-34,0.000535472834558323
205.0,6.006999461611992e-34,0.03228846692029091
206.0,6.0041636457759915e-34,0.04780133533184518
207.0,6.001172677330876e-34,0.028950429349919683
208.0,5.998016757381377e-34,0.0030899155085332784
209.0,5.994806071685553e-34,0.016133769756589155
210.0,5.991608878681268e-34,0.053427694544412124
211.0,5.9884239404226155e-34,0.06310294671862768
212.0,5.985371819894206e-34,0.011736298521789677
213.0,5.9824509054296595e-34,0.012107771505260708
214.0,5.979647046331076e-34,0.06689934027827857
215.0,5.976972923727413e-34,0.04770081059459687
216.0,5.974390803811825e-34,0.026877129761389913
217.0,5.971862836273186e-34,0.009275400731483507
218.0,5.969375927126925e-34,0.04077985550914551
219.0,5.966829864693231e-34,0.06214405435715235
220.0,5.964312688093808e-34,0.0897273177653902
221.0,5.961715437426904e-34,0.00460729701482572
222.0,5.959184234494411e-34,0.07217304985076638
223.0,5.9566607388029185e-34,0.007129499328109884
224.0,5.954178263371312e-34,0.0014421782657807352
225.0,5.9517917614561734e-34,0.03742541115632887
226.0,5.949544022367581e-34,0.050160823692965165
227.0,5.94725174439588e-34,0.03594486387203177
228.0,5.944980600886665e-34,0.048217484711877916
229.0,5.942820324940657e-34,0.05743804031490064
230.0,5.940557665360727e-34,0.03521000164144607
231.0,5.938327040956514e-34,0.050523828763339065
232.0,5.93589124256057e-34,0.065094107599575
233.0,5.933280714679288e-34,0.08552172711660358
234.0,5.930561107874537e-34,0.013176112788910038
235.0,5.927585318007085e-34,0.06791302415475452
236.0,5.924373843297566e-34,0.07520044202138979
237.0,5.920864974104398e-34,0.051348330971625084
238.0,5.917329596941234e-34,0.031066324969968
239.0,5.913731749419077e-34,0.009163605311102123
240.0,5.9101625739744895e-34,0.019323392815148097
241.0,5.906606509127875e-34,0.020355928217388873
242.0,5.903066529145715e-34,0.02352976439308556
243.0,5.899415443626871e-34,0.02118428702511073
244.0,5.895715811325251e-34,0.009007755371771136
245.0,5.891910978761499e-34,0.03764856780613421
246.0,5.888136053357399e-34,0.04429409202198508
247.0,5.88447374028136e-34,0.013489797890662878
248.0,5.881031718555284e-34,0.07059340483336178
249.0,5.877837513015581e-34,0.11861031687720736
250.0,5.874801409846522e-34,0.045958144358719984
251.0,5.871843028640644e-34,0.04653933087829342
252.0,5.869079466007304e-34,0.015147273050654326
253.0,5.866482648245369e-34,0.04952102429286067
254.0,5.863851145666898e-34,0.061447592405678424
255.0,5.861307998995103e-34,0.020446526001136424
256.0,5.8589041048938475e-34,0.04175038702074753
257.0,5.856602338867117e-34,0.02709853061920392
258.0,5.85438852732648e-34,0.02768234836766825
259.0,5.852199819959998e-34,0.0051403005323820364
260.0,5.8499399119144e-34,0.018205389346612096
261.0,5.847761765105157e-34,0.1456782446078284
262.0,5.8455902761342406e-34,0.05988139622212122
263.0,5.843428427314759e-34,0.08634346040678013
264.0,5.841465920303864e-34,0.05274053759047013
265.0,5.8396843497590315e-34,0.04978558791626511
266.0,5.838094297132541e-34,0.07240519396096647
267.0,5.836691526573063e-34,0.11000348779603693
268.0,5.835609815399137e-34,0.023733462344168305
269.0,5.834922534242627e-34,0.015068058331332077
270.0,5.83461582546101e-34,0.12965948387099713
271.0,5.834679961745354e-34,0.008925071894150146
272.0,5.834850945516083e-34,0.04521117136590522
273.0,5.8352113547080825e-34,0.03610097074998609
274.0,5.835691548875357e-34,0.027398765449873155
275.0,5.836272682270311e-34,0.04044782834260498
276.0,5.8370232559252315e-34,0.01412509726656385
277.0,5.837621077440941e-34,0.0815090364061596
278.0,5.838157189754513e-34,0.04644650424547309
279.0,5.838678735643033e-34,0.03879163168503236
280.0,5.839124451404623e-34,0.08936762797310899
281.0,5.839391475044409e-34,0.08626085592308227
282.0,5.8396521955706665e-34,0.13010373274349127
283.0,5.839898504470076e-34,0.025577197800999443
284.0,5.8400388307955256e-34,0.16248553920564207
285.0,5.840170519363797e-34,0.025961990604382743
286.0,5.840364707394993e-34,0.052118214907506094
287.0,5.840587707909695e-34,0.0016237545568923385
288.0,5.840928049864066e-34,0.02143848898504174
289.0,5.84135682077935e-34,0.04491281403827528
290.0,5.841832904262042e-34,0.06674674764773332
291.0,5.842256189552141e-34,0.015607311997915266
292.0,5.842667490322901e-34,0.01968663022157561
293.0,5.843077543893988e-34,0.10315406821182789
294.0,5.843560410171383e-34,0.07152497545864443
295.0,5.844065328328072e-34,0.06579525408925463
296.0,5.844654265063482e-34,0.0012079941748417058
297.0,5.845212050294335e-34,0.03646893852741797
298.0,5.8457127664152415e-34,0.018275182403016205
299.0,5.8461801163049925e-34,0.07013809066672874
300.0,5.846511654126136e-34,0.0062817697279078
301.0,5.846845889415339e-34,0.004332896613560983
302.0,5.84718943295627e-34,0.08349239899720755
303.0,5.847558629881313e-34,0.03073686144929043
304.0,5.847984791706224e-34,0.10757166789941436
305.0,5.848653302252639e-34,0.004300367560882264
306.0,5.849413208970953e-34,0.029104073196109432
307.0,5.850076257329491e-34,0.06301850100776357
308.0,5.850766656990428e-34,0.001827998044242571
309.0,5.851446688338201e-34,0.005470688872031674
310.0,5.8520584888888585e-34,0.05267051147226666
311.0,5.852533885098988e-34,0.018036699700574213
312.0,5.852886921210134e-34,0.049791190062904
313.0,5.8531667699115465e-34,0.07157831876324196
314.0,5.853327540909508e-34,0.038968883865784225
315.0,5.853650053912951e-34,0.007305437441315703
316.0,5.853930584741907e-34,0.008140727664705054
317.0,5.854164960732043e-34,0.015537977383401541
318.0,5.854176461632066e-34,0.06843822719211766
319.0,5.854105849858386e-34,0.028862993851869537
320.0,5.853733899645274e-34,0.021683777631223977
321.0,5.853123070874245e-34,0.055875043207878894
322.0,5.852290406718698e-34,0.013571921389661507
323.0,5.8512116976886335e-34,0.005172593252638899
324.0,5.850132223964031e-34,0.013771627117270242
325.0,5.849095029313799e-34,0.04534718753741818
326.0,5.848215459135529e-34,0.001416786907537112
327.0,5.847364255677123e-34,0.009001228446349928
328.0,5.846707832135266e-34,0.008257978262809029
329.0,5.846224891475315e-34,0.029309357675788707
330.0,5.8459502072510665e-34,0.02300757991292919
331.0,5.845926305098921e-34,0.003032730197319699
332.0,5.845992158801485e-34,0.07881906186851685
333.0,5.8461377188902875e-34,0.05392446097687192
334.0,5.8464474677098376e-34,0.04782477822692406
335.0,5.846598530440731e-34,0.047275973717665884
336.0,5.846872578897964e-34,0.03881804091362151
337.0,5.8472305596950654e-34,0.024514775339121678
338.0,5.847643130225219e-34,0.012824655668029353
339.0,5.848138817577181e-34,0.05007631841321182
340.0,5.848603910511011e-34,0.01801903397571519
341.0,5.849051750792449e-34,0.03690974934323165
342.0,5.8495969188453226e-34,0.01052221020267591
343.0,5.8503020785204e-34,0.013630426364598651
344.0,5.851367272868609e-34,0.07333380824262814
345.0,5.852648747453787e-34,0.10283880057805637
346.0,5.854085987022762e-34,0.055527015558769516
347.0,5.855641305981598e-34,0.01874434739705327
348.0,5.857205352741596e-34,0.044054471848692316
349.0,5.8587893409559346e-34,0.003048233624330078
350.0,5.8604096863355614e-34,0.059664586055339724
351.0,5.862032286844284e-34,0.0006478359316429549
352.0,5.863768418546458e-34,0.027156917240658107
353.0,5.865539122172909e-34,0.032863347380529054
354.0,5.867326826221786e-34,0.031909821834238274
355.0,5.869088757327509e-34,0.03413585979120504
356.0,5.87068904750889e-34,0.010278084624830347
357.0,5.872054928095975e-34,0.023773947596024584
358.0,5.873150314104706e-34,0.13424540353290224
359.0,5.8741674518519284e-34,0.04954393590729861
360.0,5.875139411561753e-34,0.021115446944575733
361.0,5.876183545454064e-34,0.04766378097165427
362.0,5.877127578609036e-34,0.07158093846863353
363.0,5.877872367620854e-34,0.021417905004903346
364.0,5.878459291346361e-34,0.06840580554831678
365.0,5.878933998132502e-34,0.004793774264353704
366.0,5.879339900264353e-34,0.027208635724415276
367.0,5.879769961033113e-34,0.05405352732527723
368.0,5.880218889257107e-34,0.0020753721565562873
369.0,5.880860869973431e-34,0.12846158817852696
370.0,5.881587428204221e-34,0.016138022284033337
371.0,5.882322565110654e-34,0.02120548308634151
372.0,5.882939156617894e-34,0.07169268314288486
373.0,5.88342444850263e-34,0.020571321399132484
374.0,5.883836912068352e-34,5.920045022799335e-05
375.0,5.884077631707567e-34,0.01698468308262523
376.0,5.884297792302401e-34,0.03516352245584544
377.0,5.884599150723835e-34,0.0018482031897467414
378.0,5.884693713997418e-34,0.09982352291837696
379.0,5.884809270298465e-34,0.05098357223247279
380.0,5.8846835773390805e-34,0.01205153173234453
381.0,5.884482972605366e-34,0.03322750495551311
382.0,5.8843101488165915e-34,0.09916371194384682
383.0,5.884121973280844e-34,0.10643324817796446
384.0,5.8838122183730784e-34,0.014083471353912226
385.0,5.883405155414286e-34,0.031004752333641545
386.0,5.882906573994105e-34,0.1264862627427022
387.0,5.882315351906736e-34,0.013915270120851059
388.0,5.881629720719888e-34,0.1129481696636429
389.0,5.880867365910152e-34,0.0751384213376911
390.0,5.8800755194617605e-34,0.03395785838007186
391.0,5.8791447932005045e-34,0.039733745117003616
392.0,5.8781317119234744e-34,0.027971420001120812
393.0,5.877204661510745e-34,0.020773549601700893
394.0,5.8762533802161596e-34,0.004341868369623219
395.0,5.875270144553571e-34,0.05865948008693514
396.0,5.8743919492809575e-34,0.05482755028481848
397.0,5.873316586066112e-34,0.023338770465234124
398.0,5.8723024385459416e-34,0.017397735257192674
399.0,5.8712220064014496e-34,0.029586135290582922
400.0,5.870134836993735e-34,0.006042896585825032
401.0,5.8690512815564905e-34,0.09947936336130542
402.0,5.868069021921554e-34,0.003836671906760428
403.0,5.867120330715017e-34,0.004138929353593907
404.0,5.866160944272579e-34,0.07744220995476987
405.0,5.865351724071256e-34,0.024813800277312753
406.0,5.864390038280166e-34,0.03481835605153627
407.0,5.863406927943855e-34,0.030563003367195675
408.0,5.862265208051179e-34,0.0978867680753603
409.0,5.860967729852076e-34,0.04837289053126227
410.0,5.859758816443356e-34,0.037689099324693394
411.0,5.85854299242403e-34,0.12281660943693272
412.0,5.857370138686497e-34,0.0012617526185525944
