time,flux [mJy],error
0.0,9.26166575129679e-34,0.0004782838695461686
1.0,9.277554651401689e-34,0.020077232503689535
2.0,9.29274655955062e-34,0.024763788595978893
3.0,9.307025775985217e-34,0.09847788346721516
4.0,9.320567133688857e-34,0.0495233014331605
5.0,9.332989104244183e-34,0.00021737837154830447
6.0,9.34512700576603e-34,0.019164796038577948
7.0,9.356048713439097e-34,0.07962021954843346
8.0,9.365511336903557e-34,0.0080935987469101
9.0,9.37365680799001e-34,0.05619114679358725
10.0,9.380353005566766e-34,0.01728450224278985
11.0,9.386891224841259e-34,0.03794763500647921
12.0,9.393286640245554e-34,0.012790338669314526
13.0,9.399429462902905e-34,0.005515341284766471
14.0,9.404693694532466e-34,0.016740385064533465
15.0,9.409957884758098e-34,0.01082912512125744
16.0,9.414346336537078e-34,0.08579100401247786
17.0,9.41726678444679e-34,0.11185312920151357
18.0,9.419841591422991e-34,0.036133991488392116
19.0,9.421870109246989e-34,0.007230478031165018
20.0,9.423849742517928e-34,0.017758655340488587
21.0,9.425753132608467e-34,0.03957378477780274
22.0,9.428024859056438e-34,0.051989337174646016
23.0,9.430039774855527e-34,0.018507293792861486
24.0,9.43139415349093e-34,0.07664313158698105
25.0,9.432740688964405e-34,0.008559037318699782
26.0,9.433350287044757e-34,0.004502067909960448
27.0,9.433063421387291e-34,0.007666247773167491
28.0,9.431815526990402e-34,0.03635376823012395
29.0,9.429759927922696e-34,0.00856325158073105
30.0,9.426724588371966e-34,0.0621553094664139
31.0,9.422117721911504e-34,0.01379606221851543
32.0,9.41609669838567e-34,0.07375969944496723
33.0,9.407690981407113e-34,0.008818154923724819
34.0,9.39806841954024e-34,0.18180508501267523
35.0,9.38625243451588e-34,0.07621492807301689
36.0,9.372318594575209e-34,0.0013988184651635767
37.0,9.356823088458236e-34,0.048019500641717935
38.0,9.339525173629415e-34,0.058998615779724484
39.0,9.32175743215741e-34,0.013634974327770872
40.0,9.302531100896625e-34,0.011654435241810762
41.0,9.282642218720366e-34,0.034133769131364254
42.0,9.262149804801736e-34,0.052356067593564364
43.0,9.240546561072782e-34,0.05994582764073503
44.0,9.218603191905385e-34,0.020233060217827586
45.0,9.196129275204008e-34,0.03732737837595377
46.0,9.173706014600076e-34,0.04178302522288102
47.0,9.151645609921769e-34,0.053218646778620496
48.0,9.13101257245178e-34,0.017115651923952233
49.0,9.111965285919118e-34,0.06776296801762252
50.0,9.093925241376949e-34,0.002689288866626678
51.0,9.07682594609643e-34,0.07767211453981185
52.0,9.061222194080504e-34,0.029779890398319322
53.0,9.04697425628887e-34,0.057166405040663996
54.0,9.034103703077894e-34,0.011329341180481418
55.0,9.021370795771895e-34,0.010274236550388166
56.0,9.009126215418628e-34,0.07244036091813733
57.0,8.996792191981284e-34,0.047140299268318045
58.0,8.984653602503739e-34,0.012482313913477101
59.0,8.972519013714115e-34,0.026666030438005268
60.0,8.960963515356371e-34,0.04598640566832356
61.0,8.949925606065933e-34,0.000836600811933975
62.0,8.939805757870938e-34,0.026544880724747796
63.0,8.930090951203838e-34,0.019907592308384906
64.0,8.920347178572528e-34,0.009840783702623035
65.0,8.9105347427305e-34,0.06282617784849304
66.0,8.90067023197112e-34,0.007500080441054094
67.0,8.890929904567317e-34,0.08759313838378924
68.0,8.882490486871374e-34,0.028554906057713804
69.0,8.87467805078942e-34,0.03803777809330223
70.0,8.867023271751184e-34,0.028200668940210852
71.0,8.859596148766636e-34,0.10507647485883086
72.0,8.852143334474443e-34,0.01169530489434427
73.0,8.844985841218114e-34,0.017803098287142542
74.0,8.837040787481472e-34,0.010669057652033291
75.0,8.828808499998919e-34,0.08232328131998415
76.0,8.820348377635302e-34,0.04391342156642996
77.0,8.811774527506168e-34,0.034756765760654056
78.0,8.80273955345792e-34,0.04465140255515446
79.0,8.793364057983643e-34,0.025867937298502394
80.0,8.782961138274685e-34,0.05350237338556096
81.0,8.77174365750859e-34,0.030735209904031488
82.0,8.759592359693242e-34,0.12767392537891442
83.0,8.746980334163893e-34,0.022971040336355327
84.0,8.733215859796492e-34,0.14625949919436518
85.0,8.719221731167492e-34,0.034220440560585666
86.0,8.70570223809978e-34,0.0050532739316090656
87.0,8.691143030591253e-34,0.04812079417485065
88.0,8.676543406926337e-34,0.050704321962451865
89.0,8.662183965033782e-34,0.00378693585585471
90.0,8.6475345666312e-34,0.05791910787680831
91.0,8.632627007733592e-34,0.02692356298809469
92.0,8.617534250466093e-34,0.04740244943392166
93.0,8.602144986851462e-34,0.04847058811818683
94.0,8.586397181746129e-34,0.0683455663721438
95.0,8.569466902192302e-34,0.06353913822626701
96.0,8.552581552563362e-34,0.03797938638184968
97.0,8.536050611064891e-34,0.04597046725707784
98.0,8.519197456435471e-34,0.049085969222363704
99.0,8.501569283212796e-34,0.039617972375633
100.0,8.48396792990446e-34,0.04757842124655891
101.0,8.465906769420648e-34,0.00951727116080532
102.0,8.44768602466798e-34,0.0329480555109216
103.0,8.429127419941518e-34,0.01422037369821639
104.0,8.410796936085011e-34,0.004332312063678798
105.0,8.39294542268865e-34,0.07360341686601134
106.0,8.375023989612245e-34,0.005780752906718029
107.0,8.356535505674673e-34,0.15896965832722912
108.0,8.337020662358239e-34,0.07715607517948707
109.0,8.31730252135033e-34,0.03133711157100213
110.0,8.296541958668535e-34,0.027040839881290163
111.0,8.274927008646979e-34,0.07036872759360863
112.0,8.252391708976418e-34,0.00010186457907353131
113.0,8.229223276350152e-34,0.04802572362250254
114.0,8.204481923799236e-34,0.0032677775890675026
115.0,8.179034099999264e-34,0.0003625224084240714
116.0,8.153258949453986e-34,0.010240030290392372
117.0,8.127226678195157e-34,0.04379254078145893
118.0,8.100924768063199e-34,0.0339745047363571
119.0,8.074655062777862e-34,0.02640085901603433
120.0,8.04870784808011e-34,0.014822471024569479
121.0,8.021453283818139e-34,0.034027407519745534
122.0,7.994910537144525e-34,0.03897572856602105
123.0,7.968703717859254e-34,0.09555235611169198
124.0,7.942446868526411e-34,0.06904619162602771
125.0,7.916225167267365e-34,0.0024498786217231434
126.0,7.890495909621648e-34,0.0700384942198226
127.0,7.86507195140947e-34,0.02041964718613757
128.0,7.838880887557324e-34,0.011303870581595564
129.0,7.81375533024696e-34,0.03248706516455759
130.0,7.78899864008208e-34,0.0546664169226718
131.0,7.76530325067827e-34,0.011556452184470989
132.0,7.742011256341835e-34,0.05689406197630936
133.0,7.720241395016559e-34,0.03995148438260246
134.0,7.699648409017343e-34,0.0390251068022025
135.0,7.680465376574814e-34,0.10797032691723618
136.0,7.6618546881284215e-34,0.004362948471763987
137.0,7.644753714820724e-34,0.01533953720127693
138.0,7.629055227485005e-34,0.029343481332401666
139.0,7.615207521027303e-34,0.02325995408382393
140.0,7.602370091580591e-34,0.0013890324985246657
141.0,7.590384367944134e-34,0.017978473352026066
142.0,7.580562776309892e-34,0.08916761435043646
143.0,7.571454373149405e-34,0.04617593942577547
144.0,7.563232172454764e-34,0.00652560376060379
145.0,7.556464027241893e-34,0.06210603250295082
146.0,7.550736968976267e-34,0.03801094993373408
147.0,7.546272386032938e-34,0.06976897218768548
148.0,7.542569908750697e-34,0.01524864580320669
149.0,7.539860484051704e-34,0.027787835816800995
150.0,7.537172229272456e-34,0.0530043913827301
151.0,7.535744778002229e-34,0.07717184464661725
152.0,7.534902893622066e-34,0.02424334611349862
153.0,7.534269901180096e-34,0.03381150777810773
154.0,7.534390260869429e-34,0.019878972570697012
155.0,7.534728653749182e-34,0.0719786195667567
156.0,7.534616621181885e-34,0.03405835367240014
157.0,7.5336496162850104e-34,0.07539428883788557
158.0,7.532582118947128e-34,0.013136666608263514
159.0,7.531103652187141e-34,0.02180827079410031
160.0,7.529260356405134e-34,4.455974906806374e-05
161.0,7.527801723844922e-34,0.05093561176903502
162.0,7.525835209670348e-34,0.051875798662690334
163.0,7.52337054621296e-34,0.08023829463598159
164.0,7.5204217468062785e-34,0.004237043489091671
165.0,7.5171654886924875e-34,0.06743402671941416
166.0,7.51358040588122e-34,0.09495383695808662
167.0,7.509578773186137e-34,0.03674640122483629
168.0,7.505282574370972e-34,0.005326668604754928
169.0,7.5007044669697e-34,0.03332831824284594
170.0,7.495522562812197e-34,0.026072710015688096
171.0,7.489545468209866e-34,0.0003078430340571419
172.0,7.483230016015892e-34,0.048296899653569265
173.0,7.476038961919435e-34,0.03762378892075115
174.0,7.467684618837367e-34,0.004459038172699153
175.0,7.458429837609427e-34,0.006366121496400483
176.0,7.4483618206986725e-34,0.04134351698099907
177.0,7.43892503024001e-34,0.005882829307627232
178.0,7.4291529847960806e-34,0.035461810635736724
179.0,7.419970249011187e-34,0.014762472824545592
180.0,7.411581192683382e-34,0.0114977995996427
181.0,7.403108932858774e-34,0.052125004026175564
182.0,7.395346088916625e-34,0.06494092910643033
183.0,7.38730702885725e-34,0.02713121648040337
184.0,7.377804322659495e-34,0.02369893785547246
185.0,7.367959158545381e-34,0.040301522696391354
186.0,7.356551958793904e-34,0.07924283489551794
187.0,7.344470150315523e-34,0.0007745446244472385
188.0,7.331306368411291e-34,0.09798373569073525
189.0,7.318402007569002e-34,0.0030433239631124562
190.0,7.30603385921931e-34,0.041120615300895925
191.0,7.293805413589814e-34,0.010286674401873431
192.0,7.281583597517103e-34,0.016725915312011435
193.0,7.2689055786227425e-34,0.03599770444096716
194.0,7.255840342575846e-34,0.050743253854211884
195.0,7.242314490695212e-34,0.06285044430819901
196.0,7.228220621781992e-34,0.08666116029689758
197.0,7.213834457846316e-34,0.1353419776013207
198.0,7.199545566862831e-34,0.026676273230733894
199.0,7.1854990413042725e-34,0.10072829964423968
200.0,7.171275863484756e-34,0.06925209590549107
201.0,7.1563862182023164e-34,0.04296164397609988
202.0,7.14207662228982e-34,0.03300271748869429
203.0,7.127535847705199e-34,0.021092958069205282
204.0,7.112662182028292e-34,0.000535472834558323
205.0,7.097396673295556e-34,0.03228846692029091
206.0,7.080880684714193e-34,0.04780133533184518
207.0,7.063461076550772e-34,0.028950429349919683
208.0,7.045080779358006e-34,0.0030899155085332784
209.0,7.0263815226512075e-34,0.016133769756589155
210.0,7.0077608483179774e-34,0.053427694544412124
211.0,6.989211546475281e-34,0.06310294671862768
212.0,6.971435784327325e-34,0.011736298521789677
213.0,6.954424175417054e-34,0.012107771505260708
214.0,6.9380943050961115e-34,0.06689934027827857
215.0,6.922520029141165e-34,0.04770081059459687
216.0,6.907481583237814e-34,0.026877129761389913
217.0,6.8927585245426104e-34,0.009275400731483507
218.0,6.878274592779091e-34,0.04077985550914551
219.0,6.863446148157089e-34,0.06214405435715235
220.0,6.848785936642083e-34,0.0897273177653902
221.0,6.83365936819114e-34,0.00460729701482572
222.0,6.818917466337201e-34,0.07217304985076638
223.0,6.804220451990672e-34,0.007129499328109884
224.0,6.789762342489546e-34,0.0014421782657807352
225.0,6.775863189420626e-34,0.03742541115632887
226.0,6.7627722007006245e-34,0.050160823692965165
227.0,6.749421814428955e-34,0.03594486387203177
228.0,6.736194516736117e-34,0.048217484711877916
229.0,6.723612919439166e-34,0.05743804031490064
230.0,6.710435032740313e-34,0.03521000164144607
231.0,6.697443721131991e-34,0.050523828763339065
232.0,6.683257461931657e-34,0.065094107599575
233.0,6.668053566061109e-34,0.08552172711660358
234.0,6.6522143869568655e-34,0.013176112788910038
235.0,6.634883179885004e-34,0.06791302415475452
236.0,6.616179327907588e-34,0.07520044202138979
237.0,6.59574342978185e-34,0.051348330971625084
238.0,6.575153147395954e-34,0.031066324969968
239.0,6.554199033296206e-34,0.009163605311102123
240.0,6.5334119073695656e-34,0.019323392815148097
241.0,6.512701138477003e-34,0.020355928217388873
242.0,6.492084048953279e-34,0.02352976439308556
243.0,6.470819873059596e-34,0.02118428702511073
244.0,6.4492729573279375e-34,0.009007755371771136
245.0,6.4271133479558545e-34,0.03764856780613421
246.0,6.4051279199608e-34,0.04429409202198508
247.0,6.383798353993445e-34,0.013489797890662878
248.0,6.363751780163436e-34,0.07059340483336178
249.0,6.345148505031623e-34,0.11861031687720736
250.0,6.327466029098084e-34,0.045958144358719984
251.0,6.310236211281526e-34,0.04653933087829342
252.0,6.294141030375664e-34,0.015147273050654326
253.0,6.27901698319336e-34,0.04952102429286067
254.0,6.2636909292281776e-34,0.061447592405678424
255.0,6.24887946620618e-34,0.020446526001136424
256.0,6.234879019836176e-34,0.04175038702074753
257.0,6.2214733744723835e-34,0.02709853061920392
258.0,6.208579982150392e-34,0.02768234836766825
259.0,6.195832798283984e-34,0.0051403005323820364
260.0,6.182670936712371e-34,0.018205389346612096
261.0,6.169985258265518e-34,0.1456782446078284
262.0,6.1573383555319454e-34,0.05988139622212122
263.0,6.1447475977105415e-34,0.08634346040678013
264.0,6.133317820441049e-34,0.05274053759047013
265.0,6.122941829729022e-34,0.04978558791626511
266.0,6.113681252688188e-34,0.07240519396096647
267.0,6.105511419425927e-34,0.11000348779603693
268.0,6.099211458345907e-34,0.023733462344168305
269.0,6.095208685109016e-34,0.015068058331332077
270.0,6.09342239184177e-34,0.12965948387099713
271.0,6.0937959260206965e-34,0.008925071894150146
272.0,6.09479174738861e-34,0.04521117136590522
273.0,6.0968907955792995e-34,0.03610097074998609
274.0,6.099687479793717e-34,0.027398765449873155
275.0,6.103072041087672e-34,0.04044782834260498
276.0,6.107443434235551e-34,0.01412509726656385
277.0,6.110925188304984e-34,0.0815090364061596
278.0,6.114047543690998e-34,0.04644650424547309
279.0,6.1170850632048206e-34,0.03879163168503236
280.0,6.119680942787514e-34,0.08936762797310899
281.0,6.121236107029731e-34,0.08626085592308227
282.0,6.122754561500551e-34,0.13010373274349127
283.0,6.1241890816546784e-34,0.025577197800999443
284.0,6.125006351929906e-34,0.16248553920564207
285.0,6.1257733153068134e-34,0.025961990604382743
286.0,6.1269042799009054e-34,0.052118214907506094
287.0,6.1282030504020415e-34,0.0016237545568923385
288.0,6.130185225605662e-34,0.02143848898504174
289.0,6.132682417225423e-34,0.04491281403827528
290.0,6.135455160527052e-34,0.06674674764773332
291.0,6.137920403484365e-34,0.015607311997915266
292.0,6.140315847767852e-34,0.01968663022157561
293.0,6.142704028273736e-34,0.10315406821182789
294.0,6.1455162750432704e-34,0.07152497545864443
295.0,6.14845695349091e-34,0.06579525408925463
296.0,6.151886961982187e-34,0.0012079941748417058
297.0,6.1551355419452e-34,0.03646893852741797
298.0,6.158051747444308e-34,0.018275182403016205
299.0,6.160773625693464e-34,0.07013809066672874
300.0,6.162704525013084e-34,0.0062817697279078
301.0,6.164651134574218e-34,0.004332896613560983
302.0,6.16665195604054e-34,0.08349239899720755
303.0,6.1688021845994195e-34,0.03073686144929043
304.0,6.171284180695461e-34,0.10757166789941436
305.0,6.175177632594181e-34,0.004300367560882264
306.0,6.1796033821521226e-34,0.029104073196109432
307.0,6.183465021888909e-34,0.06301850100776357
308.0,6.187485957512396e-34,0.001827998044242571
309.0,6.191446507359181e-34,0.005470688872031674
310.0,6.195009676300005e-34,0.05267051147226666
311.0,6.197778416878446e-34,0.018036699700574213
312.0,6.199834523733655e-34,0.049791190062904
313.0,6.201464382026411e-34,0.07157831876324196
314.0,6.202400723495709e-34,0.038968883865784225
315.0,6.204279061649616e-34,0.007305437441315703
316.0,6.205912892700612e-34,0.008140727664705054
317.0,6.207277914761523e-34,0.015537977383401541
318.0,6.207344896802826e-34,0.06843822719211766
319.0,6.206933648923818e-34,0.028862993851869537
320.0,6.204767385023812e-34,0.021683777631223977
321.0,6.201209875795105e-34,0.055875043207878894
322.0,6.196360381864455e-34,0.013571921389661507
323.0,6.190077905479007e-34,0.005172593252638899
324.0,6.183790975459399e-34,0.013771627117270242
325.0,6.177750281708272e-34,0.04534718753741818
326.0,6.172627603840265e-34,0.001416786907537112
327.0,6.167670135720866e-34,0.009001228446349928
328.0,6.163847079377006e-34,0.008257978262809029
329.0,6.161034399398296e-34,0.029309357675788707
330.0,6.15943461937959e-34,0.02300757991292919
331.0,6.159295411583762e-34,0.003032730197319699
332.0,6.159678948125793e-34,0.07881906186851685
333.0,6.160526700202654e-34,0.05392446097687192
334.0,6.1623306988621735e-34,0.04782477822692406
335.0,6.163210498709128e-34,0.047275973717665884
336.0,6.164806575976541e-34,0.03881804091362151
337.0,6.166891481026511e-34,0.024514775339121678
338.0,6.169294320476985e-34,0.012824655668029353
339.0,6.172181238076147e-34,0.05007631841321182
340.0,6.174889971657113e-34,0.01801903397571519
341.0,6.177498224591109e-34,0.03690974934323165
342.0,6.18067332123239e-34,0.01052221020267591
343.0,6.184780220204375e-34,0.013630426364598651
344.0,6.19098398614313e-34,0.07333380824262814
345.0,6.198447383218292e-34,0.10283880057805637
346.0,6.206817966388232e-34,0.055527015558769516
347.0,6.215876252133882e-34,0.01874434739705327
348.0,6.224985369200267e-34,0.044054471848692316
349.0,6.2342106266831145e-34,0.003048233624330078
350.0,6.2436476308242325e-34,0.059664586055339724
351.0,6.253097768993989e-34,0.0006478359316429549
352.0,6.263209120727351e-34,0.027156917240658107
353.0,6.273521821751227e-34,0.032863347380529054
354.0,6.283933534417222e-34,0.031909821834238274
355.0,6.294195143670492e-34,0.03413585979120504
356.0,6.303515344942741e-34,0.010278084624830347
357.0,6.311470328441115e-34,0.023773947596024584
358.0,6.317849932709742e-34,0.13424540353290224
359.0,6.323773813663342e-34,0.04954393590729861
360.0,6.3294345745862585e-34,0.021115446944575733
361.0,6.335515682965684e-34,0.04766378097165427
362.0,6.341013797691617e-34,0.07158093846863353
363.0,6.345351500675907e-34,0.021417905004903346
364.0,6.348769785257561e-34,0.06840580554831678
365.0,6.351534510582759e-34,0.004793774264353704
366.0,6.35389851281792e-34,0.027208635724415276
367.0,6.356403216634003e-34,0.05405352732527723
368.0,6.359017805821073e-34,0.0020753721565562873
369.0,6.362756746144936e-34,0.12846158817852696
370.0,6.366988271793073e-34,0.016138022284033337
371.0,6.371269760244562e-34,0.02120548308634151
372.0,6.3748608320496e-34,0.07169268314288486
373.0,6.377687205724922e-34,0.020571321399132484
374.0,6.380089422207106e-34,5.920045022799335e-05
375.0,6.381491390121287e-34,0.01698468308262523
376.0,6.382773620731675e-34,0.03516352245584544
377.0,6.384528753129239e-34,0.0018482031897467414
378.0,6.385079496208849e-34,0.09982352291837696
379.0,6.385752504139889e-34,0.05098357223247279
380.0,6.385020459605965e-34,0.01205153173234453
381.0,6.383852123690308e-34,0.03322750495551311
382.0,6.38284558592937e-34,0.09916371194384682
383.0,6.381749638526779e-34,0.10643324817796446
384.0,6.379945604409073e-34,0.014083471353912226
385.0,6.377574841437103e-34,0.031004752333641545
386.0,6.374671068583434e-34,0.1264862627427022
387.0,6.3712277500434616e-34,0.013915270120851059
388.0,6.36723458634459e-34,0.1129481696636429
389.0,6.362794578932011e-34,0.0751384213376911
390.0,6.3581828101655754e-34,0.03395785838007186
391.0,6.3527621957137705e-34,0.039733745117003616
392.0,6.3468619399245855e-34,0.027971420001120812
393.0,6.341462733870151e-34,0.020773549601700893
394.0,6.335922405475204e-34,0.004341868369623219
395.0,6.330195972619466e-34,0.05865948008693514
396.0,6.32508130229759e-34,0.05482755028481848
397.0,6.3188183121725804e-34,0.023338770465234124
398.0,6.312911846509219e-34,0.017397735257192674
399.0,6.306619334585549e-34,0.029586135290582922
400.0,6.300287584372477e-34,0.006042896585825032
401.0,6.2939768821746774e-34,0.09947936336130542
402.0,6.28825613377184e-34,0.003836671906760428
403.0,6.282730890229755e-34,0.004138929353593907
404.0,6.277143356890222e-34,0.07744220995476987
405.0,6.27243040217885e-34,0.024813800277312753
406.0,6.266829477272912e-34,0.03481835605153627
407.0,6.261103774326129e-34,0.030563003367195675
408.0,6.254454318296163e-34,0.0978867680753603
409.0,6.2468977150608895e-34,0.04837289053126227
410.0,6.239856919322041e-34,0.037689099324693394
411.0,6.2327758757065824e-34,0.12281660943693272
412.0,6.2259450939996734e-34,0.0012617526185525944
413.0,6.218402914403234e-34,0.07566419322607493
