time,flux [mJy],error
0.0,8.044380204804038e-34,0.0004782838695461686
1.0,8.052522769652908e-34,0.020077232503689535
2.0,8.06030814790213e-34,0.024763788595978893
3.0,8.067625800165167e-34,0.09847788346721516
4.0,8.07456532288327e-34,0.0495233014331605
5.0,8.080931194663553e-34,0.00021737837154830447
6.0,8.087151489940025e-34,0.019164796038577948
7.0,8.09274852386945e-34,0.07962021954843346
8.0,8.09759782273162e-34,0.0080935987469101
9.0,8.101772122155e-34,0.05619114679358725
10.0,8.10520371418778e-34,0.01728450224278985
11.0,8.108554347276743e-34,0.03794763500647921
12.0,8.111831797844191e-34,0.012790338669314526
13.0,8.11497980252119e-34,0.005515341284766471
14.0,8.117677556748366e-34,0.016740385064533465
15.0,8.120375289757323e-34,0.01082912512125744
16.0,8.122624234175162e-34,0.08579100401247786
17.0,8.124120872478352e-34,0.11185312920151357
18.0,8.125440380602805e-34,0.036133991488392116
19.0,8.126479932605773e-34,0.007230478031165018
20.0,8.127494432802714e-34,0.017758655340488587
21.0,8.128469860751949e-34,0.03957378477780274
22.0,8.129634049575553e-34,0.051989337174646016
23.0,8.130666630965755e-34,0.018507293792861486
24.0,8.13136070769831e-34,0.07664313158698105
25.0,8.132050765055438e-34,0.008559037318699782
26.0,8.13236316502449e-34,0.004502067909960448
27.0,8.132216155338267e-34,0.007666247773167491
28.0,8.13157664845081e-34,0.03635376823012395
29.0,8.130523218156607e-34,0.00856325158073105
30.0,8.128967701477228e-34,0.0621553094664139
31.0,8.126606826359583e-34,0.01379606221851543
32.0,8.123521239931824e-34,0.07375969944496723
33.0,8.119213572620224e-34,0.008818154923724819
34.0,8.114282310324156e-34,0.18180508501267523
35.0,8.10822698719424e-34,0.07621492807301689
36.0,8.101086329592917e-34,0.0013988184651635767
37.0,8.09314536687111e-34,0.048019500641717935
38.0,8.084280726001443e-34,0.058998615779724484
39.0,8.075175313657063e-34,0.013634974327770872
40.0,8.065322419620142e-34,0.011654435241810762
41.0,8.055129988940701e-34,0.034133769131364254
42.0,8.04462826710088e-34,0.052356067593564364
43.0,8.033557279691581e-34,0.05994582764073503
44.0,8.022311988622431e-34,0.020233060217827586
45.0,8.01079480851928e-34,0.03732737837595377
46.0,7.9993035880833e-34,0.04178302522288102
47.0,7.987998319971629e-34,0.053218646778620496
48.0,7.977424532955576e-34,0.017115651923952233
49.0,7.967663393747495e-34,0.06776296801762252
50.0,7.958418434587871e-34,0.002689288866626678
51.0,7.949655580030765e-34,0.07767211453981185
52.0,7.94165914466793e-34,0.029779890398319322
53.0,7.934357521732099e-34,0.057166405040663996
54.0,7.927761765356937e-34,0.011329341180481418
55.0,7.921236548207274e-34,0.010274236550388166
56.0,7.914961583362921e-34,0.07244036091813733
57.0,7.908640781732662e-34,0.047140299268318045
58.0,7.90242013390039e-34,0.012482313913477101
59.0,7.896201536295673e-34,0.026666030438005268
60.0,7.89027970444339e-34,0.04598640566832356
61.0,7.884623120815827e-34,0.000836600811933975
62.0,7.879437014814503e-34,0.026544880724747796
63.0,7.874458479940544e-34,0.019907592308384906
64.0,7.869465100914978e-34,0.009840783702623035
65.0,7.86443653413933e-34,0.06282617784849304
66.0,7.859381280595639e-34,0.007500080441054094
67.0,7.854389667141525e-34,0.08759313838378924
68.0,7.850064729265256e-34,0.028554906057713804
69.0,7.846061099875872e-34,0.03803777809330223
70.0,7.842138264795336e-34,0.028200668940210852
71.0,7.838332096329115e-34,0.10507647485883086
72.0,7.83451276187046e-34,0.01169530489434427
73.0,7.830844770215263e-34,0.017803098287142542
74.0,7.826773178421541e-34,0.010669057652033291
75.0,7.822554388307771e-34,0.08232328131998415
76.0,7.818218839936245e-34,0.04391342156642996
77.0,7.81382500963836e-34,0.034756765760654056
78.0,7.809194867739927e-34,0.04465140255515446
79.0,7.804390219250378e-34,0.025867937298502394
80.0,7.799059047942827e-34,0.05350237338556096
81.0,7.793310439544772e-34,0.030735209904031488
82.0,7.787083279086451e-34,0.12767392537891442
83.0,7.780620010070324e-34,0.022971040336355327
84.0,7.77356614703341e-34,0.14625949919436518
85.0,7.766394593363062e-34,0.034220440560585666
86.0,7.759466275587702e-34,0.0050532739316090656
87.0,7.752005136647708e-34,0.04812079417485065
88.0,7.744523285690382e-34,0.050704321962451865
89.0,7.737164520386818e-34,0.00378693585585471
90.0,7.72965716143167e-34,0.05791910787680831
91.0,7.722017503289146e-34,0.02692356298809469
92.0,7.71428293676865e-34,0.04740244943392166
93.0,7.706396420009703e-34,0.04847058811818683
94.0,7.698326161939543e-34,0.0683455663721438
95.0,7.6896499226614046e-34,0.06353913822626701
96.0,7.680996708565917e-34,0.03797938638184968
97.0,7.672525117563675e-34,0.04597046725707784
98.0,7.663888402399496e-34,0.049085969222363704
99.0,7.654854514422034e-34,0.039617972375633
100.0,7.645834370812671e-34,0.04757842124655891
101.0,7.636578590392731e-34,0.00951727116080532
102.0,7.627241028021276e-34,0.0329480555109216
103.0,7.6177303229698176e-34,0.01422037369821639
104.0,7.608336522736486e-34,0.004332312063678798
105.0,7.59918817989836e-34,0.07360341686601134
106.0,7.5900040054088795e-34,0.005780752906718029
107.0,7.580529235070775e-34,0.15896965832722912
108.0,7.570528487620006e-34,0.07715607517948707
109.0,7.56042355645447e-34,0.03133711157100213
110.0,7.54978441675194e-34,0.027040839881290163
111.0,7.538707430233449e-34,0.07036872759360863
112.0,7.527158793276527e-34,0.00010186457907353131
113.0,7.515285695462292e-34,0.04802572362250254
114.0,7.502606525333173e-34,0.0032677775890675026
115.0,7.489565310762882e-34,0.0003625224084240714
116.0,7.4763563514630736e-34,0.010240030290392372
117.0,7.463015625831408e-34,0.04379254078145893
118.0,7.449536718702234e-34,0.0339745047363571
119.0,7.4360743155507025e-34,0.02640085901603433
120.0,7.422777178748963e-34,0.014822471024569479
121.0,7.408810066144209e-34,0.034027407519745534
122.0,7.39520773781247e-34,0.03897572856602105
123.0,7.381777561771073e-34,0.09555235611169198
124.0,7.368321746893505e-34,0.06904619162602771
125.0,7.354883944305542e-34,0.0024498786217231434
126.0,7.3416985036828165e-34,0.0700384942198226
127.0,7.3286695194805806e-34,0.02041964718613757
128.0,7.315247417606376e-34,0.011303870581595564
129.0,7.302371354542668e-34,0.03248706516455759
130.0,7.2896843243656206e-34,0.0546664169226718
131.0,7.277541177667865e-34,0.011556452184470989
132.0,7.265604758337903e-34,0.05689406197630936
133.0,7.254448384616521e-34,0.03995148438260246
134.0,7.243895122727813e-34,0.0390251068022025
135.0,7.234064417982359e-34,0.10797032691723618
136.0,7.224527021651812e-34,0.004362948471763987
137.0,7.215763307158208e-34,0.01533953720127693
138.0,7.207718322904021e-34,0.029343481332401666
139.0,7.200621806021447e-34,0.02325995408382393
140.0,7.194043024540504e-34,0.0013890324985246657
141.0,7.187900715675436e-34,0.017978473352026066
142.0,7.182867456842354e-34,0.08916761435043646
143.0,7.178199684818218e-34,0.04617593942577547
144.0,7.173986063868088e-34,0.00652560376060379
145.0,7.170517600919832e-34,0.06210603250295082
146.0,7.167582662502872e-34,0.03801094993373408
147.0,7.165294703242054e-34,0.06976897218768548
148.0,7.163397299320254e-34,0.01524864580320669
149.0,7.162008803819053e-34,0.027787835816800995
150.0,7.1606311572402596e-34,0.0530043913827301
151.0,7.15989963306554e-34,0.07717184464661725
152.0,7.159468193625713e-34,0.02424334611349862
153.0,7.159143804777299e-34,0.03381150777810773
154.0,7.159205485357397e-34,0.019878972570697012
155.0,7.1593789011350535e-34,0.0719786195667567
156.0,7.1593214879448145e-34,0.03405835367240014
157.0,7.158825928149612e-34,0.07539428883788557
158.0,7.158278869118318e-34,0.013136666608263514
159.0,7.157521201099097e-34,0.02180827079410031
160.0,7.1565765696053146e-34,4.455974906806374e-05
161.0,7.155829065993751e-34,0.05093561176903502
162.0,7.154821288923785e-34,0.051875798662690334
163.0,7.153558225911245e-34,0.08023829463598159
164.0,7.15204705835171e-34,0.004237043489091671
165.0,7.15037832781145e-34,0.06743402671941416
166.0,7.148541084887987e-34,0.09495383695808662
167.0,7.146490373164334e-34,0.03674640122483629
168.0,7.1442887055079725e-34,0.005326668604754928
169.0,7.141942568509574e-34,0.03332831824284594
170.0,7.139287004539473e-34,0.026072710015688096
171.0,7.136223930312434e-34,0.0003078430340571419
172.0,7.132987458391793e-34,0.048296899653569265
173.0,7.129302267854653e-34,0.03762378892075115
174.0,7.125020928059806e-34,0.004459038172699153
175.0,7.1202781418497415e-34,0.006366121496400483
176.0,7.115118597762101e-34,0.04134351698099907
177.0,7.11028253750824e-34,0.005882829307627232
178.0,7.105274669549603e-34,0.035461810635736724
179.0,7.100568804378012e-34,0.014762472824545592
180.0,7.096269675129354e-34,0.0114977995996427
181.0,7.091927906688309e-34,0.052125004026175564
182.0,7.087949691721049e-34,0.06494092910643033
183.0,7.0838299246241915e-34,0.02713121648040337
184.0,7.078960084613609e-34,0.02369893785547246
185.0,7.073914745621124e-34,0.040301522696391354
186.0,7.068068912170903e-34,0.07924283489551794
187.0,7.061877362826558e-34,0.0007745446244472385
188.0,7.055131335908147e-34,0.09798373569073525
189.0,7.048518254178269e-34,0.0030433239631124562
190.0,7.042179964596678e-34,0.041120615300895925
191.0,7.035913268294121e-34,0.010286674401873431
192.0,7.029649969432275e-34,0.016725915312011435
193.0,7.023152880878567e-34,0.03599770444096716
194.0,7.016457355632936e-34,0.050743253854211884
195.0,7.009525779164637e-34,0.06285044430819901
196.0,7.00230311171505e-34,0.08666116029689758
197.0,6.994930652199328e-34,0.1353419776013207
198.0,6.987608042032273e-34,0.026676273230733894
199.0,6.980409636572689e-34,0.10072829964423968
200.0,6.973120702348933e-34,0.06925209590549107
201.0,6.965490224374466e-34,0.04296164397609988
202.0,6.958157003578225e-34,0.03300271748869429
203.0,6.9507053109357885e-34,0.021092958069205282
204.0,6.943083022009868e-34,0.000535472834558323
205.0,6.935259925761123e-34,0.03228846692029091
206.0,6.926795997661689e-34,0.04780133533184518
207.0,6.917868992760397e-34,0.028950429349919683
208.0,6.908449664748669e-34,0.0030899155085332784
209.0,6.898866879952016e-34,0.016133769756589155
210.0,6.889324366166478e-34,0.053427694544412124
211.0,6.879818428552278e-34,0.06310294671862768
212.0,6.870708905862082e-34,0.011736298521789677
213.0,6.861990987829933e-34,0.012107771505260708
214.0,6.853622439523627e-34,0.06689934027827857
215.0,6.8456411097210525e-34,0.04770081059459687
216.0,6.837934376077702e-34,0.026877129761389913
217.0,6.83038926852413e-34,0.009275400731483507
218.0,6.822966706051431e-34,0.04077985550914551
219.0,6.8153675915032e-34,0.06214405435715235
220.0,6.807854691165795e-34,0.0897273177653902
221.0,6.800102797470226e-34,0.00460729701482572
222.0,6.792548033386564e-34,0.07217304985076638
223.0,6.7850162727479215e-34,0.007129499328109884
224.0,6.777606943377874e-34,0.0014421782657807352
225.0,6.770484061714518e-34,0.03742541115632887
226.0,6.763775339028574e-34,0.050160823692965165
227.0,6.756933683202377e-34,0.03594486387203177
228.0,6.750155106426881e-34,0.048217484711877916
229.0,6.743707430929115e-34,0.05743804031490064
230.0,6.7369541757441706e-34,0.03521000164144607
231.0,6.730296534463511e-34,0.050523828763339065
232.0,6.72302651987855e-34,0.065094107599575
233.0,6.715234998296559e-34,0.08552172711660358
234.0,6.7071179139069715e-34,0.013176112788910038
235.0,6.6982362118029775e-34,0.06791302415475452
236.0,6.6886510720737125e-34,0.07520044202138979
237.0,6.6781783128118915e-34,0.051348330971625084
238.0,6.667626436440536e-34,0.031066324969968
239.0,6.656888107683895e-34,0.009163605311102123
240.0,6.64623535514836e-34,0.019323392815148097
241.0,6.635621733206986e-34,0.020355928217388873
242.0,6.6250561190150926e-34,0.02352976439308556
243.0,6.614158893277062e-34,0.02118428702511073
244.0,6.603116772206385e-34,0.009007755371771136
245.0,6.591760664788843e-34,0.03764856780613421
246.0,6.580493819884664e-34,0.04429409202198508
247.0,6.569563083777014e-34,0.013489797890662878
248.0,6.559289841052164e-34,0.07059340483336178
249.0,6.549756243813708e-34,0.11861031687720736
250.0,6.540694527393637e-34,0.045958144358719984
251.0,6.531864784115038e-34,0.04653933087829342
252.0,6.523616506800998e-34,0.015147273050654326
253.0,6.515865905176829e-34,0.04952102429286067
254.0,6.508011781388216e-34,0.061447592405678424
255.0,6.50042136937939e-34,0.020446526001136424
256.0,6.493246578064178e-34,0.04175038702074753
257.0,6.486376603679861e-34,0.02709853061920392
258.0,6.4797691429739196e-34,0.02768234836766825
259.0,6.473236609533124e-34,0.0051403005323820364
260.0,6.466491566725178e-34,0.018205389346612096
261.0,6.459990552890144e-34,0.1456782446078284
262.0,6.453509410396604e-34,0.05988139622212122
263.0,6.447057040416281e-34,0.08634346040678013
264.0,6.441199636693521e-34,0.05274053759047013
265.0,6.43588226565549e-34,0.04978558791626511
266.0,6.431136509272409e-34,0.07240519396096647
267.0,6.426949724995133e-34,0.11000348779603693
268.0,6.4237211917863665e-34,0.023733462344168305
269.0,6.421669895570673e-34,0.015068058331332077
270.0,6.420754476084641e-34,0.12965948387099713
271.0,6.4209459006801195e-34,0.008925071894150146
272.0,6.421456228016347e-34,0.04521117136590522
273.0,6.4225319246284954e-34,0.03610097074998609
274.0,6.423965137904893e-34,0.027398765449873155
275.0,6.425699619816106e-34,0.04044782834260498
276.0,6.427939822218507e-34,0.01412509726656385
277.0,6.429724112390326e-34,0.0815090364061596
278.0,6.431324221966444e-34,0.04644650424547309
279.0,6.432880855808794e-34,0.03879163168503236
280.0,6.434211162985653e-34,0.08936762797310899
281.0,6.435008136068075e-34,0.08626085592308227
282.0,6.435786296539668e-34,0.13010373274349127
283.0,6.4365214432965155e-34,0.025577197800999443
284.0,6.4369402687766406e-34,0.16248553920564207
285.0,6.437333313543235e-34,0.025961990604382743
286.0,6.437912897560277e-34,0.052118214907506094
287.0,6.4385784768615174e-34,0.0016237545568923385
288.0,6.439594279719535e-34,0.02143848898504174
289.0,6.4408740123989344e-34,0.04491281403827528
290.0,6.442294956705572e-34,0.06674674764773332
291.0,6.443558316693716e-34,0.015607311997915266
292.0,6.4447859070424105e-34,0.01968663022157561
293.0,6.446009774932043e-34,0.10315406821182789
294.0,6.4474509635316805e-34,0.07152497545864443
295.0,6.4489579693534495e-34,0.06579525408925463
296.0,6.4507157415332735e-34,0.0012079941748417058
297.0,6.452380537261168e-34,0.03646893852741797
298.0,6.453875001461481e-34,0.018275182403016205
299.0,6.4552698790180246e-34,0.07013809066672874
300.0,6.456259404587626e-34,0.0062817697279078
301.0,6.457256981165131e-34,0.004332896613560983
302.0,6.458282339650173e-34,0.08349239899720755
303.0,6.459384264601867e-34,0.03073686144929043
304.0,6.460656210050152e-34,0.10757166789941436
305.0,6.4626514824958205e-34,0.004300367560882264
306.0,6.464919540859991e-34,0.029104073196109432
307.0,6.4668985105666525e-34,0.06301850100776357
308.0,6.468959114437985e-34,0.001827998044242571
309.0,6.470988772485536e-34,0.005470688872031674
310.0,6.472814785235102e-34,0.05267051147226666
311.0,6.474233678271172e-34,0.018036699700574213
312.0,6.475287368790605e-34,0.049791190062904
313.0,6.476122620240084e-34,0.07157831876324196
314.0,6.476602465986744e-34,0.038968883865784225
315.0,6.477565055601212e-34,0.007305437441315703
316.0,6.478402342965159e-34,0.008140727664705054
317.0,6.4791018741207276e-34,0.015537977383401541
318.0,6.4791362003240156e-34,0.06843822719211766
319.0,6.4789254486356245e-34,0.028862993851869537
320.0,6.477815306072633e-34,0.021683777631223977
321.0,6.4759921937486865e-34,0.055875043207878894
322.0,6.47350697963356e-34,0.013571921389661507
323.0,6.470287406784446e-34,0.005172593252638899
324.0,6.467065551586982e-34,0.013771627117270242
325.0,6.463969884783365e-34,0.04534718753741818
326.0,6.4613446724360826e-34,0.001416786907537112
327.0,6.4588041249229185e-34,0.009001228446349928
328.0,6.456844927999579e-34,0.008257978262809029
329.0,6.4554035173937745e-34,0.029309357675788707
330.0,6.454583680119939e-34,0.02300757991292919
331.0,6.454512340474179e-34,0.003032730197319699
332.0,6.454708890968221e-34,0.07881906186851685
333.0,6.455143337419268e-34,0.05392446097687192
334.0,6.456067830365629e-34,0.04782477822692406
335.0,6.456518700297503e-34,0.047275973717665884
336.0,6.4573366400269945e-34,0.03881804091362151
337.0,6.4584050887214315e-34,0.024514775339121678
338.0,6.459636468862142e-34,0.012824655668029353
339.0,6.461115923928845e-34,0.05007631841321182
340.0,6.462504065253651e-34,0.01801903397571519
341.0,6.463840713386442e-34,0.03690974934323165
342.0,6.465467851207964e-34,0.01052221020267591
343.0,6.467572508609444e-34,0.013630426364598651
344.0,6.4707517448139655e-34,0.07333380824262814
345.0,6.47457650261823e-34,0.10283880057805637
346.0,6.478866164950682e-34,0.055527015558769516
347.0,6.4835082533656525e-34,0.01874434739705327
348.0,6.488176391244253e-34,0.044054471848692316
349.0,6.492904047457439e-34,0.003048233624330078
350.0,6.497740217216882e-34,0.059664586055339724
351.0,6.5025831177556235e-34,0.0006478359316429549
352.0,6.507764869585837e-34,0.027156917240658107
353.0,6.513049806636202e-34,0.032863347380529054
354.0,6.518385484059495e-34,0.031909821834238274
355.0,6.523644238173806e-34,0.03413585979120504
356.0,6.528420550112505e-34,0.010278084624830347
357.0,6.532497230598855e-34,0.023773947596024584
358.0,6.535766578453299e-34,0.13424540353290224
359.0,6.538802382348045e-34,0.04954393590729861
360.0,6.541703345448353e-34,0.021115446944575733
361.0,6.544819723486203e-34,0.04766378097165427
362.0,6.5476373354925005e-34,0.07158093846863353
363.0,6.549860272738725e-34,0.021417905004903346
364.0,6.551612036781186e-34,0.06840580554831678
365.0,6.553028872125428e-34,0.004793774264353704
366.0,6.5542403494067735e-34,0.027208635724415276
367.0,6.5555239318520674e-34,0.05405352732527723
368.0,6.55686382711658e-34,0.0020753721565562873
369.0,6.55877991720791e-34,0.12846158817852696
370.0,6.560948441886908e-34,0.016138022284033337
371.0,6.563142570941517e-34,0.02120548308634151
372.0,6.564982883037158e-34,0.07169268314288486
373.0,6.566431311234611e-34,0.020571321399132484
374.0,6.567662372123538e-34,5.920045022799335e-05
375.0,6.56838083687452e-34,0.01698468308262523
376.0,6.569037939998548e-34,0.03516352245584544
377.0,6.569937390512502e-34,0.0018482031897467414
378.0,6.57021962913262e-34,0.09982352291837696
379.0,6.5705645246688816e-34,0.05098357223247279
380.0,6.570189374718264e-34,0.01205153173234453
381.0,6.569590639066601e-34,0.03322750495551311
382.0,6.569074819913786e-34,0.09916371194384682
383.0,6.568513181113263e-34,0.10643324817796446
384.0,6.567588669995689e-34,0.014083471353912226
385.0,6.5663737280479695e-34,0.031004752333641545
386.0,6.5648856351899814e-34,0.1264862627427022
387.0,6.563121042026078e-34,0.013915270120851059
388.0,6.561074670398365e-34,0.1129481696636429
389.0,6.558799305329185e-34,0.0751384213376911
390.0,6.5564359179329036e-34,0.03395785838007186
391.0,6.553658022395569e-34,0.039733745117003616
392.0,6.550634325659409e-34,0.027971420001120812
393.0,6.547867401256814e-34,0.020773549601700893
394.0,6.545028156064127e-34,0.004341868369623219
395.0,6.5420935381501934e-34,0.05865948008693514
396.0,6.5394724294201035e-34,0.05482755028481848
397.0,6.536262842670609e-34,0.023338770465234124
398.0,6.533235963567963e-34,0.017397735257192674
399.0,6.5300112478190755e-34,0.029586135290582922
400.0,6.526766423672885e-34,0.006042896585825032
401.0,6.523532385976868e-34,0.09947936336130542
402.0,6.520600681167432e-34,0.003836671906760428
403.0,6.517769166490506e-34,0.004138929353593907
404.0,6.514905730238657e-34,0.07744220995476987
405.0,6.5124904882071895e-34,0.024813800277312753
406.0,6.509620189195982e-34,0.03481835605153627
407.0,6.506685945337581e-34,0.030563003367195675
408.0,6.503278306887075e-34,0.0978867680753603
409.0,6.499405783838017e-34,0.04837289053126227
410.0,6.49579759601427e-34,0.037689099324693394
411.0,6.492168782411321e-34,0.12281660943693272
412.0,6.4886682202169735e-34,0.0012617526185525944
413.0,6.484803088832146e-34,0.07566419322607493
