time,flux [mJy],error
0.0,8.375341886078175e-34,0.009974423110754091
1.0,8.385781071781855e-34,0.04415608373767523
2.0,8.395762325947525e-34,0.009915433322799998
3.0,8.405143931412956e-34,0.06315447081509198
4.0,8.414040755410525e-34,0.027781340512698767
5.0,8.422202129487812e-34,0.048497599149876974
6.0,8.430176867021749e-34,0.006721953522568946
7.0,8.437352551546653e-34,0.02669455477077833
8.0,8.443569601369947e-34,0.04215836410572292
9.0,8.448921267297359e-34,0.012929686621565345
10.0,8.45332074426246e-34,0.025071172036361694
11.0,8.45761642770985e-34,0.04598346086328811
12.0,8.461818287411706e-34,0.03397263084677438
13.0,8.465854190843756e-34,0.023385669173956184
14.0,8.469312850109366e-34,0.01790015289074746
15.0,8.47277148217213e-34,0.050238915544522644
16.0,8.475654744246283e-34,0.021230250595577448
17.0,8.477573511301655e-34,0.04445468579809457
18.0,8.479265188384289e-34,0.00937898934018102
19.0,8.480597947362452e-34,0.06840459297135534
20.0,8.481898588640582e-34,0.1246855166254842
21.0,8.483149137293447e-34,0.010325347723440154
22.0,8.4846416870673e-34,0.017064992284978247
23.0,8.48596550936243e-34,0.04637732085272475
24.0,8.486855351327242e-34,0.03199650099240741
25.0,8.48774004024664e-34,0.05163470862493156
26.0,8.488140553027473e-34,0.063157920298009
27.0,8.487952079070779e-34,0.03528963204624219
28.0,8.487132198445833e-34,0.01066141172651541
29.0,8.485781646786597e-34,0.006749600896931485
30.0,8.483787394633546e-34,0.0038363956070926806
31.0,8.480760631662208e-34,0.0009011911339825636
32.0,8.47680475162662e-34,0.04583935995929493
33.0,8.471282101227134e-34,0.06482622949794163
34.0,8.464959970078328e-34,0.024984240676906633
35.0,8.457196735296383e-34,0.007618918324444288
36.0,8.448042046063918e-34,0.06797843644936935
37.0,8.437861324625704e-34,0.028082978734071225
38.0,8.426496400433825e-34,0.0646111658955064
39.0,8.414822794864107e-34,0.010337230351184234
40.0,8.402190879432156e-34,0.004777398404261152
41.0,8.38912366061236e-34,0.05204058845355136
42.0,8.375659914663872e-34,0.011300803982045957
43.0,8.361466341062204e-34,0.07604643145764153
44.0,8.347049301229961e-34,0.03925238307343733
45.0,8.332283685713103e-34,0.061644144705769614
46.0,8.317551351820821e-34,0.022889320779966593
47.0,8.30305741834432e-34,0.05447369528078497
48.0,8.28950128114425e-34,0.027106387201114357
49.0,8.27698700010825e-34,0.09094104988485271
50.0,8.265134488365142e-34,0.02176525177796795
51.0,8.253900059445775e-34,0.052267080526066045
52.0,8.243648219237012e-34,0.04667320041561885
53.0,8.234287164191074e-34,0.0431303266745998
54.0,8.2258310662742e-34,0.05714397988326447
55.0,8.217465403261811e-34,0.02092063367525121
56.0,8.209420576538283e-34,0.04271267048471411
57.0,8.201316984704618e-34,0.013931172693832324
58.0,8.193341795176063e-34,0.1133370908048482
59.0,8.185369234144376e-34,0.0671145920565369
60.0,8.177777142026064e-34,0.0018273711726673474
61.0,8.170525111734317e-34,0.03199883507974937
62.0,8.163876257886464e-34,0.013826684472305884
63.0,8.157493520868569e-34,0.031203961721654384
64.0,8.151091752887075e-34,0.04709557180597783
65.0,8.144644872405474e-34,0.06095158072143182
66.0,8.138163778118692e-34,0.04770256388547039
67.0,8.131764273690338e-34,0.09074689875881878
68.0,8.126219481541275e-34,0.029400737063494567
69.0,8.121086623349758e-34,0.026145241257078823
70.0,8.116057347605482e-34,0.09117455694643306
71.0,8.11117764444366e-34,0.028993918042943045
72.0,8.106281061804358e-34,0.02009749380676858
73.0,8.10157850840026e-34,0.12353077627021017
74.0,8.09635851892113e-34,0.11038062995002221
75.0,8.090949813647065e-34,0.003665423019881084
76.0,8.085391418298956e-34,0.042453713829994154
77.0,8.079758302532436e-34,0.009488416999334448
78.0,8.07382222317547e-34,0.004540171951012161
79.0,8.067662417419637e-34,0.06842199998405031
80.0,8.060827582409956e-34,0.01964247273081421
81.0,8.05345757164322e-34,0.07546934690643593
82.0,8.04547403259409e-34,0.046761731734469056
83.0,8.037187790265723e-34,0.08409323061773863
84.0,8.028144376115831e-34,0.015280636105272197
85.0,8.018950076538464e-34,0.04932245444475542
86.0,8.010067617852104e-34,0.006336649424936125
87.0,8.000502055108521e-34,0.17147789887615617
88.0,7.990909938496565e-34,0.041899885728252095
89.0,7.981475624004817e-34,0.011822811135374445
90.0,7.97185080483155e-34,0.000734348952635993
91.0,7.962056371315494e-34,0.014513580012144473
92.0,7.95214026039178e-34,0.01860520827421907
93.0,7.942029341470056e-34,0.026109719424360158
94.0,7.93168285676472e-34,0.005073482186202187
95.0,7.920559473074799e-34,0.0009655779141134575
96.0,7.909465608849816e-34,0.007368371733247822
97.0,7.898604594744377e-34,0.07747232322281755
98.0,7.887531882995431e-34,0.026995187526778854
99.0,7.875949975332017e-34,0.0012331430582634998
100.0,7.864385688653347e-34,0.10358921008537372
101.0,7.852519303499578e-34,0.05364848853330069
102.0,7.84054806969002e-34,0.059243286712493376
103.0,7.828354858085586e-34,0.021924034734224676
104.0,7.81631152445311e-34,0.06554297771677303
105.0,7.804582879788846e-34,0.04076379066057885
106.0,7.792808297110024e-34,0.007063689004706825
107.0,7.780661155650917e-34,0.07570564737612591
108.0,7.767839684560185e-34,0.008193428324910759
109.0,7.75488464460437e-34,0.04292843508723899
110.0,7.74124472190882e-34,0.05536169916907331
111.0,7.727043457141522e-34,0.04271770137113373
112.0,7.712237512324958e-34,0.053480739603967854
113.0,7.697015592050297e-34,0.009811151761193368
114.0,7.680760245730914e-34,0.005832611950173745
115.0,7.664040739871566e-34,0.021143035560036293
116.0,7.647106176666683e-34,0.01938240349226786
117.0,7.630002682267112e-34,0.014314413845505115
118.0,7.6127220321015055e-34,0.04858300269613362
119.0,7.5954625408815924e-34,0.0541222347466209
120.0,7.578414929597311e-34,0.025262329334307873
121.0,7.560508374975831e-34,0.002502089691779761
122.0,7.543069492499243e-34,0.05245595772405546
123.0,7.5258513180871954e-34,0.04284120213711818
124.0,7.508600273372365e-34,0.03247566711036292
125.0,7.491372321336514e-34,0.018357628908496484
126.0,7.474467910281739e-34,0.0009320994687144779
127.0,7.457764084381436e-34,0.07579375608443707
128.0,7.440556261465789e-34,0.002293002043436154
129.0,7.424048488307189e-34,0.021588939195947447
130.0,7.407783065003282e-34,0.002754731445751459
131.0,7.392214928211289e-34,0.04372493036871543
132.0,7.376911826506209e-34,0.008188614873842008
133.0,7.362608783273666e-34,0.05960643947947987
134.0,7.349078960339427e-34,0.028625447807718314
135.0,7.336475492717049e-34,0.08198475449351297
136.0,7.324248061524041e-34,0.009678054652950394
137.0,7.313012530121984e-34,0.0907089956755519
138.0,7.302698447744822e-34,0.027622520388686563
139.0,7.293600349177418e-34,0.0011242231664516655
140.0,7.28516601394544e-34,0.08512949199249054
141.0,7.2772912589902255e-34,0.05969581704908618
142.0,7.270838363050377e-34,0.003059150257073446
143.0,7.26485403994251e-34,0.022788669505403467
144.0,7.259451961801318e-34,0.09026968923024324
145.0,7.255005214431759e-34,0.005442195018091708
146.0,7.251242472871553e-34,0.06934673671478045
147.0,7.24830919176794e-34,0.06778666998489287
148.0,7.245876622637427e-34,0.13288808460511406
149.0,7.244096500199991e-34,0.028105058492044307
150.0,7.242330286637434e-34,0.07724979168054025
151.0,7.241392435131384e-34,0.07173496601428758
152.0,7.240839307644426e-34,0.08372943828994
153.0,7.240423424505434e-34,0.03543522052282821
154.0,7.240502502172226e-34,0.05702897172993481
155.0,7.240724830092298e-34,0.042341055710323795
156.0,7.2406512234381455e-34,0.03129851323103874
157.0,7.2400158903673735e-34,0.05006673317476589
158.0,7.239314532634946e-34,0.04132448950245831
159.0,7.238343163379534e-34,0.0005371218448908432
160.0,7.237132097361864e-34,0.0018875073804493028
161.0,7.23617375939832e-34,0.08179401752571301
162.0,7.2348817375137485e-34,0.007961255146303225
163.0,7.233262425959211e-34,0.06457466169557617
164.0,7.231325031652115e-34,0.021339304641008805
165.0,7.2291856335235755e-34,0.002957021292513477
166.0,7.226830193878111e-34,0.018811276023880483
167.0,7.224201076283684e-34,0.035019429219563886
168.0,7.2213784254421946e-34,0.015374672243998242
169.0,7.21837055749553e-34,0.10194986076733155
170.0,7.214965988303094e-34,0.05059676249817498
171.0,7.2110389700632995e-34,0.04113132409399607
172.0,7.206889647088119e-34,0.009821358464215267
173.0,7.202165043835375e-34,0.03388064591051215
174.0,7.196676146662494e-34,0.09683178775870126
175.0,7.190595651521385e-34,0.013512958342762189
176.0,7.183980851409026e-34,0.039719471595303174
177.0,7.177780774160487e-34,0.025807683705045978
178.0,7.1713604306237725e-34,0.04763769864372134
179.0,7.165327270147373e-34,0.007758225795357296
180.0,7.159815565982427e-34,0.01849180563171666
181.0,7.154249196186216e-34,0.025650623340033752
182.0,7.149148920587165e-34,0.08482282197883625
183.0,7.143867167898885e-34,0.020329038914708133
184.0,7.137623783269933e-34,0.06380186046602403
185.0,7.131155399946235e-34,0.0628384397403753
186.0,7.123660741676721e-34,0.0048341715686677205
187.0,7.1157228579019206e-34,0.025381696931802575
188.0,7.107074105442419e-34,0.01894951029675905
189.0,7.098595795532319e-34,0.043576565008249114
190.0,7.090469783248228e-34,0.07760827474460795
191.0,7.082435557219309e-34,0.112696908596473
192.0,7.074405686883608e-34,0.05364305665546844
193.0,7.066076086173727e-34,0.061874501003430005
194.0,7.057492079448559e-34,0.03064457190329302
195.0,7.048605442950739e-34,0.059720352739756434
196.0,7.039345612887167e-34,0.09533578505558074
197.0,7.029893741713164e-34,0.08368844893240149
198.0,7.0205057799605285e-34,0.05909174605868427
199.0,7.011277055012344e-34,0.019495776730315353
200.0,7.00193226754599e-34,0.02007269449908991
201.0,6.992149603476161e-34,0.02551990709953222
202.0,6.982748038352774e-34,0.00826087856648098
203.0,6.973194586247087e-34,0.09504537398323083
204.0,6.9634224209574445e-34,0.012635893450903475
205.0,6.9533928103821315e-34,0.1018756239140875
206.0,6.942541620511062e-34,0.08167009471533998
207.0,6.931096742432483e-34,0.004954387066129454
208.0,6.919020680878986e-34,0.011070715676581605
209.0,6.906735059344814e-34,0.062089636931885364
210.0,6.894501067312074e-34,0.07161355422672797
211.0,6.882313967806689e-34,0.04055404871048898
212.0,6.8706350925628474e-34,0.031186781298202355
213.0,6.859458274572914e-34,0.04300148728397277
214.0,6.848729366487905e-34,0.048109786334810285
215.0,6.838496892382041e-34,0.007349924739674838
216.0,6.8286164646341555e-34,0.03975507054120785
217.0,6.818943249821884e-34,0.061759909852020324
218.0,6.8094271440876545e-34,0.015944333272849463
219.0,6.799684689538639e-34,0.052204521017657636
220.0,6.7900527660291456e-34,0.04823467811028008
221.0,6.780114440778417e-34,0.021145517454056947
222.0,6.770428845799363e-34,0.024823613556961457
223.0,6.760772742416488e-34,0.00765665883928093
224.0,6.751273602198478e-34,0.13985769370483345
225.0,6.742141702630074e-34,0.01639322060350112
226.0,6.733540776109632e-34,0.02650322379482281
227.0,6.724769422486303e-34,0.056910717945986844
228.0,6.716078939440794e-34,0.06396981225136887
229.0,6.707812688802634e-34,0.012655580289924135
230.0,6.699154669334756e-34,0.04191551388747171
231.0,6.690619231795449e-34,0.10073852912346498
232.0,6.681298700276268e-34,0.03073795584859672
233.0,6.671309570042947e-34,0.01250686065518384
234.0,6.660903051594758e-34,0.08399077977669292
235.0,6.649516254025535e-34,0.05839766587970217
236.0,6.6372276133469895e-34,0.09552497491128717
237.0,6.623800998908757e-34,0.036675113296915605
238.0,6.610272952278814e-34,0.031214783252034414
239.0,6.596505864129275e-34,0.009986209429048896
240.0,6.582848489083718e-34,0.03290430106428959
241.0,6.569241281466571e-34,0.1771901600180295
242.0,6.555695622246195e-34,0.11151131258650687
243.0,6.541724820017951e-34,0.01311994020600372
244.0,6.527568254542724e-34,0.021318342267777873
245.0,6.513009142468952e-34,0.025811440486351003
246.0,6.498564469514876e-34,0.0455805975825142
247.0,6.4845507052742995e-34,0.03768900466679506
248.0,6.471379881268081e-34,0.04073782158213848
249.0,6.459157320705958e-34,0.10137608588987282
250.0,6.447539735552021e-34,0.05234585242586818
251.0,6.436219551861509e-34,0.0022382413943923154
252.0,6.42564483735633e-34,0.020333358082972024
253.0,6.415708168607396e-34,0.07287147745583003
254.0,6.4056387791348146e-34,0.027557155992440897
255.0,6.395907481687602e-34,0.005322644492033367
256.0,6.386709031283484e-34,0.11043083326350792
257.0,6.37790137181641e-34,0.051344700515858877
258.0,6.369430268347255e-34,0.03288872338297749
259.0,6.36105522547444e-34,0.007763630659142927
260.0,6.352407734695023e-34,0.0032653880333878174
261.0,6.344073101573184e-34,0.041547942560682005
262.0,6.335763944530184e-34,0.013600571564586071
263.0,6.327491675324641e-34,0.021240619511958974
264.0,6.319982183372385e-34,0.02260631399539717
265.0,6.313165041015935e-34,0.091063498535632
266.0,6.307080737960703e-34,0.013552746203915056
267.0,6.301713065810348e-34,0.13368901371877617
268.0,6.297573920670906e-34,0.043138223822759496
269.0,6.294944053727709e-34,0.0207028840382769
270.0,6.293770439002026e-34,0.036526746025814245
271.0,6.294015855150075e-34,0.055047887705247614
272.0,6.2946701209657525e-34,0.00202936381039272
273.0,6.296049219186455e-34,0.08634085259785595
274.0,6.2978866721049136e-34,0.04889014236771342
275.0,6.300110366862879e-34,0.016166170406493232
276.0,6.3029824212249315e-34,0.05804326510207091
277.0,6.305269972727263e-34,0.0005316189201568986
278.0,6.307321395260748e-34,0.001069202002192365
279.0,6.3093170796740175e-34,0.026686030076911862
280.0,6.311022601695631e-34,0.026518402209866718
281.0,6.312044362057711e-34,0.09048503730935946
282.0,6.313042003687957e-34,0.053320356115012624
283.0,6.31398449953007e-34,0.0010045790063187667
284.0,6.314521455273821e-34,0.0404612949850556
285.0,6.315025358820736e-34,0.03208901544538161
286.0,6.315768415252842e-34,0.011235347002423662
287.0,6.316621722049304e-34,0.013637482526230541
288.0,6.317924033405736e-34,0.0008680182065514092
289.0,6.319564716328044e-34,0.053563439960959906
290.0,6.321386439798091e-34,0.011256294504127445
291.0,6.323006132090584e-34,0.0023569722637581964
292.0,6.3245799658709614e-34,0.002219823082190518
293.0,6.326149027267927e-34,0.036509635039358605
294.0,6.327996704959769e-34,0.016638310998188844
295.0,6.3299287637056265e-34,0.008349467800582043
296.0,6.332182317782324e-34,0.004502414672746074
297.0,6.334316671279625e-34,0.009395116687190633
298.0,6.336232651023616e-34,0.057568660660352704
299.0,6.338020955583287e-34,0.018081385740368213
300.0,6.339289578108417e-34,0.08291600740925757
301.0,6.340568522438552e-34,0.009487502102647333
302.0,6.341883084598863e-34,0.10254511582931952
303.0,6.343295808895906e-34,0.0719568383893496
304.0,6.344926508188578e-34,0.017998494952620226
305.0,6.347484549785589e-34,0.03495451169357581
306.0,6.350392316919142e-34,0.06745517128096896
307.0,6.352929457568707e-34,0.05448965978746234
308.0,6.355571257403749e-34,0.10353038229530409
309.0,6.358173383105737e-34,0.03556002248349804
310.0,6.360514425092361e-34,0.0018753361814956371
311.0,6.3623335187283485e-34,0.03201869770124902
312.0,6.3636844040096725e-34,0.020298298645769465
313.0,6.364755239201312e-34,0.03235081955632015
314.0,6.365370426056004e-34,0.09251574807840104
315.0,6.366604515305323e-34,0.08424619407427558
316.0,6.3676779606437155e-34,0.0653292245895966
317.0,6.368574795458548e-34,0.053334577747901624
318.0,6.368618803411481e-34,0.04973219250131173
319.0,6.368348608939185e-34,0.03154865737069133
320.0,6.366925349243042e-34,0.0124069444448326
321.0,6.364588025750802e-34,0.030093819605153962
322.0,6.361401853808333e-34,0.10637264981909123
323.0,6.357274196309469e-34,0.02362918969987704
324.0,6.353143612722976e-34,0.06693548513287688
325.0,6.349174809128595e-34,0.01810098701491641
326.0,6.3458091522731045e-34,0.020696229861171866
327.0,6.342552040076741e-34,0.029003644801721514
328.0,6.340040249149383e-34,0.004711703544606374
329.0,6.338192286834248e-34,0.016049506695316858
330.0,6.337141213406255e-34,0.00444692581754448
331.0,6.337049752321947e-34,0.057061441209470945
332.0,6.337301740134821e-34,0.11643152543384422
333.0,6.337858722764368e-34,0.1009011469815349
334.0,6.339043970131498e-34,0.036795528676511355
335.0,6.339622008505695e-34,0.021806451598849586
336.0,6.340670649184531e-34,0.019679954985951608
337.0,6.342040455203039e-34,0.049626668698740384
338.0,6.34361914769113e-34,0.025605331183495894
339.0,6.3455158849561335e-34,0.052769452510910635
340.0,6.34729555332127e-34,0.000884767053026633
341.0,6.349009204773566e-34,0.10905378040816693
342.0,6.351095278903722e-34,0.023112265067686304
343.0,6.353793557623568e-34,0.012702638223556814
344.0,6.35786950147552e-34,0.037983245850625645
345.0,6.362773037122011e-34,0.002906660838820937
346.0,6.3682726042149e-34,0.08973595770636116
347.0,6.374223999618707e-34,0.051352480276624105
348.0,6.38020879177076e-34,0.061606124333172085
349.0,6.386269889479973e-34,0.01844654417161719
350.0,6.392470107120284e-34,0.03119434529066897
351.0,6.398678953964824e-34,0.00863603190193374
352.0,6.4053222255420215e-34,0.14423732774295536
353.0,6.412097785863002e-34,0.013102653001292092
354.0,6.418938397944147e-34,0.04744827008125704
355.0,6.425680390398392e-34,0.018913181191977615
356.0,6.4318038672428775e-34,0.012633995449404198
357.0,6.437030380686916e-34,0.05470039818758966
358.0,6.441221852295177e-34,0.052001853460194564
359.0,6.445113908570492e-34,0.022695514729889572
360.0,6.448833092032427e-34,0.07452136277744197
361.0,6.452828448491208e-34,0.017636126064821036
362.0,6.4564407715762055e-34,0.06313086143590169
363.0,6.4592906911226474e-34,0.04335285817157494
364.0,6.461536542459135e-34,0.016668324291149946
365.0,6.463352998028675e-34,0.01865014797508097
366.0,6.4649061740304015e-34,0.010129523313976384
367.0,6.466551792550009e-34,0.01663123240781821
368.0,6.468269606991692e-34,0.06485823458376035
369.0,6.470726132749806e-34,0.04827997455061736
370.0,6.473506292594676e-34,0.006895147138224519
371.0,6.476319278562123e-34,0.035514324023971665
372.0,6.4786786530437145e-34,0.04459405206458125
373.0,6.4805356122712185e-34,0.04985273725485312
374.0,6.48211389546215e-34,0.07115402575064579
375.0,6.483035004117257e-34,0.04081059337834303
376.0,6.483877444019856e-34,0.038881079083329086
377.0,6.485030585704412e-34,0.009845714739403792
378.0,6.485392430089178e-34,0.06587037354624237
379.0,6.485834603853617e-34,0.029220550481396004
380.0,6.485353642378466e-34,0.1233672224535801
381.0,6.484586032568642e-34,0.025835086584596073
382.0,6.4839247259624685e-34,0.034030688100921185
383.0,6.483204676218208e-34,0.05741775022498124
384.0,6.482019405554652e-34,0.05200946884296401
385.0,6.48046178767296e-34,0.08728125879060256
386.0,6.478553976316565e-34,0.08423430688966356
387.0,6.476291677388484e-34,0.0531109168227247
388.0,6.473668124019622e-34,0.0037777529422797296
389.0,6.470750989315544e-34,0.030256724571000572
390.0,6.4677210054741576e-34,0.07299919916664932
391.0,6.464159600939114e-34,0.09118113998716376
392.0,6.460283066661985e-34,0.004605981609104605
393.0,6.4567357276842986e-34,0.016787666812560827
394.0,6.4530956697449575e-34,0.029670099281783352
395.0,6.449333339086068e-34,0.018653032529852658
396.0,6.44597294327826e-34,0.004114285542455776
397.0,6.441858088471216e-34,0.033262662306527205
398.0,6.437977474237055e-34,0.04736525032589685
399.0,6.433843223276942e-34,0.005382016968847748
400.0,6.429683192320287e-34,0.005913335245417648
401.0,6.425536990145906e-34,0.08234731999913347
402.0,6.421778394236373e-34,0.05449588074155516
403.0,6.4181482472146735e-34,0.03578436921220631
404.0,6.4144771750969185e-34,0.029307960252580097
405.0,6.4113807109540115e-34,0.04025137922959304
406.0,6.407700840426823e-34,0.08997160574566522
407.0,6.4039389893263085e-34,0.02929358950549002
408.0,6.39957022208207e-34,0.05976651349262783
409.0,6.394605448942251e-34,0.042960637841134686
410.0,6.389979567116935e-34,0.02704557810137749
411.0,6.38532724198495e-34,0.029308717339744862
412.0,6.3808393417357855e-34,0.046061948312213295
413.0,6.3758840450885705e-34,0.029403285498515654
