time,flux [mJy],error
0.0,7.265165191439107e-34,0.009974423110754091
1.0,7.270139666980848e-34,0.04415608373767523
2.0,7.2748959292155095e-34,0.009915433322799998
3.0,7.279366447151942e-34,0.06315447081509198
4.0,7.283605957266174e-34,0.027781340512698767
5.0,7.287495011152833e-34,0.048497599149876974
6.0,7.291295129087357e-34,0.006721953522568946
7.0,7.294714482682322e-34,0.02669455477077833
8.0,7.297677028149529e-34,0.04215836410572292
9.0,7.300227201316205e-34,0.012929686621565345
10.0,7.302323637875585e-34,0.025071172036361694
11.0,7.304370614799902e-34,0.04598346086328811
12.0,7.306372882880002e-34,0.03397263084677438
13.0,7.308296069561554e-34,0.023385669173956184
14.0,7.3099441881420995e-34,0.01790015289074746
15.0,7.311592293759958e-34,0.050238915544522644
16.0,7.312966224359089e-34,0.021230250595577448
17.0,7.31388055427506e-34,0.04445468579809457
18.0,7.314686671390987e-34,0.00937898934018102
19.0,7.315321757031582e-34,0.06840459297135534
20.0,7.315941537961847e-34,0.1246855166254842
21.0,7.316537448779417e-34,0.010325347723440154
22.0,7.317248677849922e-34,0.017064992284978247
23.0,7.3178795049867945e-34,0.04637732085272475
24.0,7.318303532034079e-34,0.03199650099240741
25.0,7.318725103554742e-34,0.05163470862493156
26.0,7.3189159557044175e-34,0.063157920298009
27.0,7.318826144188994e-34,0.03528963204624219
28.0,7.318435455084335e-34,0.01066141172651541
29.0,7.317791890884269e-34,0.006749600896931485
30.0,7.316841590847369e-34,0.0038363956070926806
31.0,7.315399279272601e-34,0.0009011911339825636
32.0,7.313514225299842e-34,0.04583935995929493
33.0,7.310882574698191e-34,0.06482622949794163
34.0,7.307869955930395e-34,0.024984240676906633
35.0,7.304170623181293e-34,0.007618918324444288
36.0,7.299808235254514e-34,0.06797843644936935
37.0,7.294956922975068e-34,0.028082978734071225
38.0,7.289541314992703e-34,0.0646111658955064
39.0,7.283978614314811e-34,0.010337230351184234
40.0,7.277959260301458e-34,0.004777398404261152
41.0,7.2717324757358055e-34,0.05204058845355136
42.0,7.2653167382614386e-34,0.011300803982045957
43.0,7.258553223679405e-34,0.07604643145764153
44.0,7.251683223081128e-34,0.03925238307343733
45.0,7.244647119372246e-34,0.061644144705769614
46.0,7.237626875006434e-34,0.022889320779966593
47.0,7.2307202330873175e-34,0.05447369528078497
48.0,7.2242604693800335e-34,0.027106387201114357
49.0,7.218297170450106e-34,0.09094104988485271
50.0,7.212649217492098e-34,0.02176525177796795
51.0,7.207295793051616e-34,0.052267080526066045
52.0,7.202410591291257e-34,0.04667320041561885
53.0,7.197949866030425e-34,0.0431303266745998
54.0,7.193920370487375e-34,0.05714397988326447
55.0,7.189933968939703e-34,0.02092063367525121
56.0,7.186100452139669e-34,0.04271267048471411
57.0,7.182238932618791e-34,0.013931172693832324
58.0,7.17843859930002e-34,0.1133370908048482
59.0,7.1746395185112575e-34,0.0671145920565369
60.0,7.171021738578492e-34,0.0018273711726673474
61.0,7.167566004736958e-34,0.03199883507974937
62.0,7.164397696232292e-34,0.013826684472305884
63.0,7.161356197586119e-34,0.031203961721654384
64.0,7.158305630314707e-34,0.04709557180597783
65.0,7.155233566057343e-34,0.06095158072143182
66.0,7.152145198254676e-34,0.04770256388547039
67.0,7.149095709610472e-34,0.09074689875881878
68.0,7.146453508033406e-34,0.029400737063494567
69.0,7.1440076010194195e-34,0.026145241257078823
70.0,7.141611053061301e-34,0.09117455694643306
71.0,7.139285779355241e-34,0.028993918042943045
72.0,7.136952462249029e-34,0.02009749380676858
73.0,7.134711603856772e-34,0.12353077627021017
74.0,7.132224177085264e-34,0.11038062995002221
75.0,7.129646823557695e-34,0.003665423019881084
76.0,7.1269981397910345e-34,0.042453713829994154
77.0,7.124313850288025e-34,0.009488416999334448
78.0,7.121485192726674e-34,0.004540171951012161
79.0,7.118549925173817e-34,0.06842199998405031
80.0,7.115292993019089e-34,0.01964247273081421
81.0,7.111781039180718e-34,0.07546934690643593
82.0,7.107976727152585e-34,0.046761731734469056
83.0,7.104028171109475e-34,0.08409323061773863
84.0,7.099718807929298e-34,0.015280636105272197
85.0,7.095337544900809e-34,0.04932245444475542
86.0,7.09110488013748e-34,0.006336649424936125
87.0,7.08654670297102e-34,0.17147789887615617
88.0,7.081975872368507e-34,0.041899885728252095
89.0,7.077480237553259e-34,0.011822811135374445
90.0,7.072893823542613e-34,0.000734348952635993
91.0,7.068226584990313e-34,0.014513580012144473
92.0,7.063501364780673e-34,0.01860520827421907
93.0,7.058683314761415e-34,0.026109719424360158
94.0,7.0537530130529645e-34,0.005073482186202187
95.0,7.048452503829586e-34,0.0009655779141134575
96.0,7.043166061206851e-34,0.007368371733247822
97.0,7.037990576206429e-34,0.07747232322281755
98.0,7.032714213150978e-34,0.026995187526778854
99.0,7.027195208313461e-34,0.0012331430582634998
100.0,7.021684600218765e-34,0.10358921008537372
101.0,7.0160300363100595e-34,0.05364848853330069
102.0,7.010325509972423e-34,0.059243286712493376
103.0,7.004515206887179e-34,0.021924034734224676
104.0,6.998776323578047e-34,0.06554297771677303
105.0,6.993187395698395e-34,0.04076379066057885
106.0,6.9875765774590605e-34,0.007063689004706825
107.0,6.981788227696387e-34,0.07570564737612591
108.0,6.975678546715475e-34,0.008193428324910759
109.0,6.969505217565888e-34,0.04292843508723899
110.0,6.963005528436271e-34,0.05536169916907331
111.0,6.956238348863844e-34,0.04271770137113373
112.0,6.94918302745727e-34,0.053480739603967854
113.0,6.941929485633798e-34,0.009811151761193368
114.0,6.934183496149216e-34,0.005832611950173745
115.0,6.926216325593182e-34,0.021143035560036293
116.0,6.918146676018593e-34,0.01938240349226786
117.0,6.909996527435741e-34,0.014314413845505115
118.0,6.901761960676008e-34,0.04858300269613362
119.0,6.893537476566477e-34,0.0541222347466209
120.0,6.885413957377728e-34,0.025262329334307873
121.0,6.876881134940245e-34,0.002502089691779761
122.0,6.868571167398954e-34,0.05245595772405546
123.0,6.860366371554009e-34,0.04284120213711818
124.0,6.852145912368849e-34,0.03247566711036292
125.0,6.843936457295507e-34,0.018357628908496484
126.0,6.835881175808382e-34,0.0009320994687144779
127.0,6.827921477058577e-34,0.07579375608443707
128.0,6.81972161390351e-34,0.002293002043436154
129.0,6.8118553381079635e-34,0.021588939195947447
130.0,6.804104546743765e-34,0.002754731445751459
131.0,6.796686025998899e-34,0.04372493036871543
132.0,6.789393799640874e-34,0.008188614873842008
133.0,6.782578120645177e-34,0.05960643947947987
134.0,6.776130896198663e-34,0.028625447807718314
135.0,6.770125098121276e-34,0.08198475449351297
136.0,6.7642984887348275e-34,0.009678054652950394
137.0,6.758944538939845e-34,0.0907089956755519
138.0,6.754029677572582e-34,0.027622520388686563
139.0,6.749694256201168e-34,0.0011242231664516655
140.0,6.7456751310018205e-34,0.08512949199249054
141.0,6.741922656715621e-34,0.05969581704908618
142.0,6.738847725975107e-34,0.003059150257073446
143.0,6.735996079325747e-34,0.022788669505403467
144.0,6.7334218837562135e-34,0.09026968923024324
145.0,6.731302921927383e-34,0.005442195018091708
146.0,6.729509902204155e-34,0.06934673671478045
147.0,6.728112136562163e-34,0.06778666998489287
148.0,6.7269529699387495e-34,0.13288808460511406
149.0,6.726104706886659e-34,0.028105058492044307
150.0,6.72526307168466e-34,0.07724979168054025
151.0,6.724816167154837e-34,0.07173496601428758
152.0,6.7245525911218555e-34,0.08372943828994
153.0,6.72435441469681e-34,0.03543522052282821
154.0,6.724392096746974e-34,0.05702897172993481
155.0,6.724498040336066e-34,0.042341055710323795
156.0,6.724462965330104e-34,0.03129851323103874
157.0,6.7241602167335065e-34,0.05006673317476589
158.0,6.723826006098213e-34,0.04132448950245831
159.0,6.723363129707256e-34,0.0005371218448908432
160.0,6.72278603313523e-34,0.0018875073804493028
161.0,6.722329366408946e-34,0.08179401752571301
162.0,6.7217136927877815e-34,0.007961255146303225
163.0,6.720942059257049e-34,0.06457466169557617
164.0,6.720018853092419e-34,0.021339304641008805
165.0,6.718999388167993e-34,0.002957021292513477
166.0,6.717876975248154e-34,0.018811276023880483
167.0,6.716624149449181e-34,0.035019429219563886
168.0,6.7152791012842735e-34,0.015374672243998242
169.0,6.713845793557197e-34,0.10194986076733155
170.0,6.712223449951223e-34,0.05059676249817498
171.0,6.710352149186937e-34,0.04113132409399607
172.0,6.7083749158815126e-34,0.009821358464215267
173.0,6.706123550306426e-34,0.03388064591051215
174.0,6.703507983775407e-34,0.09683178775870126
175.0,6.700610509276945e-34,0.013512958342762189
176.0,6.697458428041256e-34,0.039719471595303174
177.0,6.694503970336869e-34,0.025807683705045978
178.0,6.691444551451189e-34,0.04763769864372134
179.0,6.688569632843441e-34,0.007758225795357296
180.0,6.6859431983359895e-34,0.01849180563171666
181.0,6.683290714589314e-34,0.025650623340033752
182.0,6.680860333815967e-34,0.08482282197883625
183.0,6.678343475670977e-34,0.020329038914708133
184.0,6.675368381155371e-34,0.06380186046602403
185.0,6.672286070374464e-34,0.0628384397403753
186.0,6.668714719570516e-34,0.0048341715686677205
187.0,6.664932163170833e-34,0.025381696931802575
188.0,6.660810863981644e-34,0.01894951029675905
189.0,6.656770783990709e-34,0.043576565008249114
190.0,6.652898580688027e-34,0.07760827474460795
191.0,6.649070115325677e-34,0.112696908596473
192.0,6.645243725536077e-34,0.05364305665546844
193.0,6.64127450837873e-34,0.061874501003430005
194.0,6.63718406179443e-34,0.03064457190329302
195.0,6.632949406222477e-34,0.059720352739756434
196.0,6.6285369166395315e-34,0.09533578505558074
197.0,6.624032915722851e-34,0.08368844893240149
198.0,6.6195593688916244e-34,0.05909174605868427
199.0,6.61516170150268e-34,0.019495776730315353
200.0,6.610708728060723e-34,0.02007269449908991
201.0,6.606047097879043e-34,0.02551990709953222
202.0,6.601567068776401e-34,0.00826087856648098
203.0,6.597014662565044e-34,0.09504537398323083
204.0,6.592358035256839e-34,0.012635893450903475
205.0,6.58757873025008e-34,0.1018756239140875
206.0,6.582407926688898e-34,0.08167009471533998
207.0,6.576954219120498e-34,0.004954387066129454
208.0,6.571199740318836e-34,0.011070715676581605
209.0,6.5653454021001675e-34,0.062089636931885364
210.0,6.559515666345657e-34,0.07161355422672797
211.0,6.553708275794789e-34,0.04055404871048898
212.0,6.548143064014424e-34,0.031186781298202355
213.0,6.542817092305173e-34,0.04300148728397277
214.0,6.537704558399425e-34,0.048109786334810285
215.0,6.532828584964717e-34,0.007349924739674838
216.0,6.5281203684841466e-34,0.03975507054120785
217.0,6.523510893007847e-34,0.061759909852020324
218.0,6.518976283070708e-34,0.015944333272849463
219.0,6.514333813509743e-34,0.052204521017657636
220.0,6.509744014144356e-34,0.04823467811028008
221.0,6.505008208374736e-34,0.021145517454056947
222.0,6.500392833507563e-34,0.024823613556961457
223.0,6.495791511961027e-34,0.00765665883928093
224.0,6.491264986423177e-34,0.13985769370483345
225.0,6.486913458215699e-34,0.01639322060350112
226.0,6.482814949019032e-34,0.02650322379482281
227.0,6.478635227984677e-34,0.056910717945986844
228.0,6.47449404335755e-34,0.06396981225136887
229.0,6.470555013744643e-34,0.012655580289924135
230.0,6.466429298645265e-34,0.04191551388747171
231.0,6.46236199622508e-34,0.10073852912346498
232.0,6.457920581214917e-34,0.03073795584859672
233.0,6.453160565880445e-34,0.01250686065518384
234.0,6.448201656922924e-34,0.08399077977669292
235.0,6.442775625849745e-34,0.05839766587970217
236.0,6.436919848949913e-34,0.09552497491128717
237.0,6.430521805364211e-34,0.036675113296915605
238.0,6.424075427361331e-34,0.031214783252034414
239.0,6.417515141413286e-34,0.009986209429048896
240.0,6.411007135898587e-34,0.03290430106428959
241.0,6.404523036141743e-34,0.1771901600180295
242.0,6.398068265396092e-34,0.11151131258650687
243.0,6.391410905717318e-34,0.01311994020600372
244.0,6.384665026229157e-34,0.021318342267777873
245.0,6.377727325437521e-34,0.025811440486351003
246.0,6.370844157117871e-34,0.0455805975825142
247.0,6.364166325202505e-34,0.03768900466679506
248.0,6.357890170745322e-34,0.04073782158213848
249.0,6.352065882309463e-34,0.10137608588987282
250.0,6.3465298764520335e-34,0.05234585242586818
251.0,6.341135588190966e-34,0.0022382413943923154
252.0,6.336096530532631e-34,0.020333358082972024
253.0,6.331361514118416e-34,0.07287147745583003
254.0,6.3265632536914594e-34,0.027557155992440897
255.0,6.321926100707056e-34,0.005322644492033367
256.0,6.317542859728683e-34,0.11043083326350792
257.0,6.313345838251855e-34,0.051344700515858877
258.0,6.309309192270548e-34,0.03288872338297749
259.0,6.305318321036486e-34,0.007763630659142927
260.0,6.301197623062459e-34,0.0032653880333878174
261.0,6.297226007862687e-34,0.041547942560682005
262.0,6.293266532511241e-34,0.013600571564586071
263.0,6.28932463493362e-34,0.021240619511958974
264.0,6.285746215590603e-34,0.02260631399539717
265.0,6.282497714330128e-34,0.091063498535632
266.0,6.279598425286336e-34,0.013552746203915056
267.0,6.277040624842321e-34,0.13368901371877617
268.0,6.275068241474084e-34,0.043138223822759496
269.0,6.273815058595811e-34,0.0207028840382769
270.0,6.273255808294681e-34,0.036526746025814245
271.0,6.273372753874602e-34,0.055047887705247614
272.0,6.273684524293317e-34,0.00202936381039272
273.0,6.274341691486552e-34,0.08634085259785595
274.0,6.275217273630737e-34,0.04889014236771342
275.0,6.276276907542786e-34,0.016166170406493232
276.0,6.277645497448563e-34,0.05804326510207091
277.0,6.278735560344446e-34,0.0005316189201568986
278.0,6.27971310318239e-34,0.001069202002192365
279.0,6.2806640857192125e-34,0.026686030076911862
280.0,6.2814768002185265e-34,0.026518402209866718
281.0,6.281963688954388e-34,0.09048503730935946
282.0,6.2824390846442395e-34,0.053320356115012624
283.0,6.282888202290756e-34,0.0010045790063187667
284.0,6.283144072172766e-34,0.0404612949850556
285.0,6.283384192038499e-34,0.03208901544538161
286.0,6.283738272917272e-34,0.011235347002423662
287.0,6.2841448902444366e-34,0.013637482526230541
288.0,6.284765466999578e-34,0.0008680182065514092
289.0,6.285547284403774e-34,0.053563439960959906
290.0,6.286415371159082e-34,0.011256294504127445
291.0,6.287187186118875e-34,0.0023569722637581964
292.0,6.2879371486034475e-34,0.002219823082190518
293.0,6.288684836954268e-34,0.036509635039358605
294.0,6.289565291402344e-34,0.016638310998188844
295.0,6.290485955068006e-34,0.008349467800582043
296.0,6.291559817527659e-34,0.004502414672746074
297.0,6.292576878586933e-34,0.009395116687190633
298.0,6.293489880294681e-34,0.057568660660352704
299.0,6.294342042287559e-34,0.018081385740368213
300.0,6.2949465656576845e-34,0.08291600740925757
301.0,6.295556007569161e-34,0.009487502102647333
302.0,6.296182422071229e-34,0.10254511582931952
303.0,6.296855612745516e-34,0.0719568383893496
304.0,6.297632672755519e-34,0.017998494952620226
305.0,6.298851629455811e-34,0.03495451169357581
306.0,6.300237237193571e-34,0.06745517128096896
307.0,6.3014462341848564e-34,0.05448965978746234
308.0,6.302705103318774e-34,0.10353038229530409
309.0,6.303945066954684e-34,0.03556002248349804
310.0,6.305060619109346e-34,0.0018753361814956371
311.0,6.3059274526974445e-34,0.03201869770124902
312.0,6.306571175874941e-34,0.020298298645769465
313.0,6.3070814497239986e-34,0.03235081955632015
314.0,6.307374598255803e-34,0.09251574807840104
315.0,6.30796266584664e-34,0.08424619407427558
316.0,6.308474183481521e-34,0.0653292245895966
317.0,6.308901542758192e-34,0.053334577747901624
318.0,6.308922513405877e-34,0.04973219250131173
319.0,6.3087937604713e-34,0.03154865737069133
320.0,6.308115549473912e-34,0.0124069444448326
321.0,6.307001769254332e-34,0.030093819605153962
322.0,6.3054834961965e-34,0.10637264981909123
323.0,6.303516586912997e-34,0.02362918969987704
324.0,6.301548283291682e-34,0.06693548513287688
325.0,6.299657070991161e-34,0.01810098701491641
326.0,6.298053269872495e-34,0.020696229861171866
327.0,6.2965011924004165e-34,0.029003644801721514
328.0,6.295304275046058e-34,0.004711703544606374
329.0,6.294423684969434e-34,0.016049506695316858
330.0,6.293922827986088e-34,0.00444692581754448
331.0,6.293879244996014e-34,0.057061441209470945
332.0,6.293999322102365e-34,0.11643152543384422
333.0,6.294264735185962e-34,0.1009011469815349
334.0,6.294829528667567e-34,0.036795528676511355
335.0,6.295104975224056e-34,0.021806451598849586
336.0,6.2956046729549916e-34,0.019679954985951608
337.0,6.296257412232692e-34,0.049626668698740384
338.0,6.297009689986231e-34,0.025605331183495894
339.0,6.2979135222775315e-34,0.052769452510910635
340.0,6.298761568955316e-34,0.000884767053026633
341.0,6.299578157286866e-34,0.10905378040816693
342.0,6.300572212286297e-34,0.023112265067686304
343.0,6.301857994710106e-34,0.012702638223556814
344.0,6.30380026143249e-34,0.037983245850625645
345.0,6.306136891782205e-34,0.002906660838820937
346.0,6.30875754273816e-34,0.08973595770636116
347.0,6.3115934986944786e-34,0.051352480276624105
348.0,6.31444536885254e-34,0.061606124333172085
349.0,6.317333600096474e-34,0.01844654417161719
350.0,6.3202881247002775e-34,0.03119434529066897
351.0,6.3232467612881575e-34,0.00863603190193374
352.0,6.326412409732007e-34,0.14423732774295536
353.0,6.329641096341771e-34,0.013102653001292092
354.0,6.3329007813836995e-34,0.04744827008125704
355.0,6.336113472250423e-34,0.018913181191977615
356.0,6.339031428368645e-34,0.012633995449404198
357.0,6.3415219639366435e-34,0.05470039818758966
358.0,6.343519281887587e-34,0.052001853460194564
359.0,6.345373922594076e-34,0.022695514729889572
360.0,6.347146186034137e-34,0.07452136277744197
361.0,6.349050051292299e-34,0.017636126064821036
362.0,6.350771393679077e-34,0.06313086143590169
363.0,6.352129435913608e-34,0.04335285817157494
364.0,6.353199627867355e-34,0.016668324291149946
365.0,6.354065204365352e-34,0.01865014797508097
366.0,6.354805323015592e-34,0.010129523313976384
367.0,6.35558949232814e-34,0.01663123240781821
368.0,6.3564080644053085e-34,0.06485823458376035
369.0,6.357578646828905e-34,0.04827997455061736
370.0,6.358903447205391e-34,0.006895147138224519
371.0,6.360243889869362e-34,0.035514324023971665
372.0,6.361368177815341e-34,0.04459405206458125
373.0,6.36225305509614e-34,0.04985273725485312
374.0,6.363005137811602e-34,0.07115402575064579
375.0,6.36344406404648e-34,0.04081059337834303
376.0,6.363845503086824e-34,0.038881079083329086
377.0,6.364394997584654e-34,0.009845714739403792
378.0,6.3645674234896075e-34,0.06587037354624237
379.0,6.36477812791032e-34,0.029220550481396004
380.0,6.3645489403891305e-34,0.1233672224535801
381.0,6.364183159347107e-34,0.025835086584596073
382.0,6.363868033854432e-34,0.034030688100921185
383.0,6.3635249161110235e-34,0.05741775022498124
384.0,6.362960111528218e-34,0.05200946884296401
385.0,6.362217876235562e-34,0.08728125879060256
386.0,6.36130876692378e-34,0.08423430688966356
387.0,6.360230737371927e-34,0.0531109168227247
388.0,6.358980563034933e-34,0.0037777529422797296
389.0,6.357590491467159e-34,0.030256724571000572
390.0,6.356146645085009e-34,0.07299919916664932
391.0,6.354449566380146e-34,0.09118113998716376
392.0,6.352602322208457e-34,0.004605981609104605
393.0,6.35091194601594e-34,0.016787666812560827
394.0,6.3491773874302654e-34,0.029670099281783352
395.0,6.347384563509526e-34,0.018653032529852658
396.0,6.345783269382666e-34,0.004114285542455776
397.0,6.343822460831455e-34,0.033262662306527205
398.0,6.341973272480685e-34,0.04736525032589685
399.0,6.34000322128433e-34,0.005382016968847748
400.0,6.338020885416939e-34,0.005913335245417648
401.0,6.336045139233949e-34,0.08234731999913347
402.0,6.3342540949941025e-34,0.05449588074155516
403.0,6.3325242591539365e-34,0.03578436921220631
404.0,6.330774921707502e-34,0.029307960252580097
405.0,6.329299396165376e-34,0.04025137922959304
406.0,6.327545866105285e-34,0.08997160574566522
407.0,6.3257532707034635e-34,0.02929358950549002
408.0,6.323671467924884e-34,0.05976651349262783
409.0,6.321305656715528e-34,0.042960637841134686
410.0,6.3191013338255816e-34,0.02704557810137749
411.0,6.3168844101843885e-34,0.029308717339744862
412.0,6.3147458382059845e-34,0.046061948312213295
