time,flux [mJy],error
0.0,6.991832129152702e-34,0.009974423110754091
1.0,6.996619452909554e-34,0.04415608373767523
2.0,7.001196773070996e-34,0.009915433322799998
3.0,7.005499099324876e-34,0.06315447081509198
4.0,7.009579108828786e-34,0.027781340512698767
5.0,7.013321847114874e-34,0.048497599149876974
6.0,7.016978995434155e-34,0.006721953522568946
7.0,7.020269704688005e-34,0.02669455477077833
8.0,7.023120792039204e-34,0.04215836410572292
9.0,7.0255750215318365e-34,0.012929686621565345
10.0,7.027592585084263e-34,0.025071172036361694
11.0,7.029562549792559e-34,0.04598346086328811
12.0,7.031489487711343e-34,0.03397263084677438
13.0,7.033340319464802e-34,0.023385669173956184
14.0,7.034926431843594e-34,0.01790015289074746
15.0,7.036512531747387e-34,0.050238915544522644
16.0,7.03783477175888e-34,0.021230250595577448
17.0,7.038714702375002e-34,0.04445468579809457
18.0,7.039490491417988e-34,0.00937898934018102
19.0,7.040101683602841e-34,0.06840459297135534
20.0,7.040698146877533e-34,0.1246855166254842
21.0,7.041271638090823e-34,0.010325347723440154
22.0,7.041956109005841e-34,0.017064992284978247
23.0,7.042563202902169e-34,0.04637732085272475
24.0,7.0429712770277675e-34,0.03199650099240741
25.0,7.043376988009588e-34,0.05163470862493156
26.0,7.043560659840422e-34,0.063157920298009
27.0,7.043474227251133e-34,0.03528963204624219
28.0,7.043098236814235e-34,0.01066141172651541
29.0,7.042478885053797e-34,0.006749600896931485
30.0,7.041564337599575e-34,0.0038363956070926806
31.0,7.040176289269911e-34,0.0009011911339825636
32.0,7.0383621555806375e-34,0.04583935995929493
33.0,7.03582951403093e-34,0.06482622949794163
34.0,7.032930237257653e-34,0.024984240676906633
35.0,7.029370082341687e-34,0.007618918324444288
36.0,7.025171817985328e-34,0.06797843644936935
37.0,7.020503023791364e-34,0.028082978734071225
38.0,7.015291164061785e-34,0.0646111658955064
39.0,7.009937745619164e-34,0.010337230351184234
40.0,7.00414485424253e-34,0.004777398404261152
41.0,6.998152336351988e-34,0.05204058845355136
42.0,6.991977974417542e-34,0.011300803982045957
43.0,6.985468919590216e-34,0.07604643145764153
44.0,6.978857385007777e-34,0.03925238307343733
45.0,6.972085996514948e-34,0.061644144705769614
46.0,6.965329870698398e-34,0.022889320779966593
47.0,6.95868307333011e-34,0.05447369528078497
48.0,6.9524663415359665e-34,0.027106387201114357
49.0,6.946727396315128e-34,0.09094104988485271
50.0,6.941291932989082e-34,0.02176525177796795
51.0,6.936139917306346e-34,0.052267080526066045
52.0,6.931438508635595e-34,0.04667320041561885
53.0,6.927145606633208e-34,0.0431303266745998
54.0,6.9232677104450554e-34,0.05714397988326447
55.0,6.91943128695209e-34,0.02092063367525121
56.0,6.915741996313287e-34,0.04271267048471411
57.0,6.9120257564836364e-34,0.013931172693832324
58.0,6.9083684008833825e-34,0.1133370908048482
59.0,6.904712250689934e-34,0.0671145920565369
60.0,6.901230580376378e-34,0.0018273711726673474
61.0,6.897904859588706e-34,0.03199883507974937
62.0,6.894855750502502e-34,0.013826684472305884
63.0,6.8919286803816265e-34,0.031203961721654384
64.0,6.888992882819097e-34,0.04709557180597783
65.0,6.8860363970391505e-34,0.06095158072143182
66.0,6.883064221092652e-34,0.04770256388547039
67.0,6.88012946157677e-34,0.09074689875881878
68.0,6.877586666004827e-34,0.029400737063494567
69.0,6.875232779920383e-34,0.026145241257078823
70.0,6.8729263958849075e-34,0.09117455694643306
71.0,6.870688604591977e-34,0.028993918042943045
72.0,6.8684430725110366e-34,0.02009749380676858
73.0,6.866286520623912e-34,0.12353077627021017
74.0,6.8638926768555095e-34,0.11038062995002221
75.0,6.861412289592812e-34,0.003665423019881084
76.0,6.858863255706902e-34,0.042453713829994154
77.0,6.8562799556584465e-34,0.009488416999334448
78.0,6.8535577190267e-34,0.004540171951012161
79.0,6.8507328833288265e-34,0.06842199998405031
80.0,6.8475984848283305e-34,0.01964247273081421
81.0,6.844218659175893e-34,0.07546934690643593
82.0,6.840557474554934e-34,0.046761731734469056
83.0,6.8367574727272386e-34,0.08409323061773863
84.0,6.832610238198442e-34,0.015280636105272197
85.0,6.828393808867289e-34,0.04932245444475542
86.0,6.824320387175646e-34,0.006336649424936125
87.0,6.819933699643698e-34,0.17147789887615617
88.0,6.815534834728524e-34,0.041899885728252095
89.0,6.8112083365534754e-34,0.011822811135374445
90.0,6.8067944745156215e-34,0.000734348952635993
91.0,6.802302828750588e-34,0.014513580012144473
92.0,6.797755382738211e-34,0.01860520827421907
93.0,6.793118599397867e-34,0.026109719424360158
94.0,6.788373787548002e-34,0.005073482186202187
95.0,6.783272696284096e-34,0.0009655779141134575
96.0,6.778185142401341e-34,0.007368371733247822
97.0,6.773204371647149e-34,0.07747232322281755
98.0,6.768126518114011e-34,0.026995187526778854
99.0,6.762815151568709e-34,0.0012331430582634998
100.0,6.7575118658604825e-34,0.10358921008537372
101.0,6.7520700403036704e-34,0.05364848853330069
102.0,6.74658013202518e-34,0.059243286712493376
103.0,6.740988426575812e-34,0.021924034734224676
104.0,6.735465453918077e-34,0.06554297771677303
105.0,6.730086795004373e-34,0.04076379066057885
106.0,6.72468706929919e-34,0.007063689004706825
107.0,6.719116491235374e-34,0.07570564737612591
108.0,6.71323667120987e-34,0.008193428324910759
109.0,6.707295597613528e-34,0.04292843508723899
110.0,6.701040442487873e-34,0.05536169916907331
111.0,6.694527860555945e-34,0.04271770137113373
112.0,6.687737977381628e-34,0.053480739603967854
113.0,6.680757331321266e-34,0.009811151761193368
114.0,6.6733027646702284e-34,0.005832611950173745
115.0,6.665635338313873e-34,0.021143035560036293
116.0,6.657869288447161e-34,0.01938240349226786
117.0,6.650025768139309e-34,0.014314413845505115
118.0,6.642101005670288e-34,0.04858300269613362
119.0,6.634185946517816e-34,0.0541222347466209
120.0,6.626368053741941e-34,0.025262329334307873
121.0,6.618156256694154e-34,0.002502089691779761
122.0,6.610158930203095e-34,0.05245595772405546
123.0,6.6022628185951406e-34,0.04284120213711818
124.0,6.5943516329396625e-34,0.03247566711036292
125.0,6.586451037394738e-34,0.018357628908496484
126.0,6.578698815053335e-34,0.0009320994687144779
127.0,6.5710385793958115e-34,0.07579375608443707
128.0,6.563147214898029e-34,0.002293002043436154
129.0,6.5555768873975775e-34,0.021588939195947447
130.0,6.548117699525232e-34,0.002754731445751459
131.0,6.5409782814489776e-34,0.04372493036871543
132.0,6.533960406259687e-34,0.008188614873842008
133.0,6.527401149569935e-34,0.05960643947947987
134.0,6.5211964852792846e-34,0.028625447807718314
135.0,6.515416639831564e-34,0.08198475449351297
136.0,6.509809241563428e-34,0.009678054652950394
137.0,6.5046567202912985e-34,0.0907089956755519
138.0,6.499926767879693e-34,0.027622520388686563
139.0,6.495754455531752e-34,0.0011242231664516655
140.0,6.491886539529925e-34,0.08512949199249054
141.0,6.488275242389843e-34,0.05969581704908618
142.0,6.4853159979707655e-34,0.003059150257073446
143.0,6.482571637156026e-34,0.022788669505403467
144.0,6.480094289041356e-34,0.09026968923024324
145.0,6.478055047674522e-34,0.005442195018091708
146.0,6.476329485684019e-34,0.06934673671478045
147.0,6.474984307361547e-34,0.06778666998489287
148.0,6.473868751386277e-34,0.13288808460511406
149.0,6.4730524020390444e-34,0.028105058492044307
150.0,6.472242431186172e-34,0.07724979168054025
151.0,6.471812340284184e-34,0.07173496601428758
152.0,6.4715586806181866e-34,0.08372943828994
153.0,6.471367960068914e-34,0.03543522052282821
154.0,6.471404224429336e-34,0.05702897172993481
155.0,6.4715061821647166e-34,0.042341055710323795
156.0,6.471472426765197e-34,0.03129851323103874
157.0,6.471181068302041e-34,0.05006673317476589
158.0,6.470859431478078e-34,0.04132448950245831
159.0,6.470413969614949e-34,0.0005371218448908432
160.0,6.469858584809842e-34,0.0018875073804493028
161.0,6.469419098988803e-34,0.08179401752571301
162.0,6.468826588496322e-34,0.007961255146303225
163.0,6.468083985682767e-34,0.06457466169557617
164.0,6.467195512763899e-34,0.021339304641008805
165.0,6.466214402572276e-34,0.002957021292513477
166.0,6.4651342175374814e-34,0.018811276023880483
167.0,6.4639285260710554e-34,0.035019429219563886
168.0,6.462634081866849e-34,0.015374672243998242
169.0,6.4612546986383794e-34,0.10194986076733155
170.0,6.45969339151736e-34,0.05059676249817498
171.0,6.457892493607638e-34,0.04113132409399607
172.0,6.455989648594839e-34,0.009821358464215267
173.0,6.4538229848304815e-34,0.03388064591051215
174.0,6.451305822229821e-34,0.09683178775870126
175.0,6.448517357720353e-34,0.013512958342762189
176.0,6.445483865394073e-34,0.039719471595303174
177.0,6.442640561524521e-34,0.025807683705045978
178.0,6.439696245366832e-34,0.04763769864372134
179.0,6.436929488140989e-34,0.007758225795357296
180.0,6.434401866443418e-34,0.01849180563171666
181.0,6.4318491755419215e-34,0.025650623340033752
182.0,6.429510231563444e-34,0.08482282197883625
183.0,6.427088063700916e-34,0.020329038914708133
184.0,6.424224899426828e-34,0.06380186046602403
185.0,6.4212585526223015e-34,0.0628384397403753
186.0,6.4178215646615944e-34,0.0048341715686677205
187.0,6.414181317169796e-34,0.025381696931802575
188.0,6.41021507121041e-34,0.01894951029675905
189.0,6.406326988786868e-34,0.043576565008249114
190.0,6.402600467125088e-34,0.07760827474460795
191.0,6.398916037876684e-34,0.112696908596473
192.0,6.39523360611297e-34,0.05364305665546844
193.0,6.391413720492058e-34,0.061874501003430005
194.0,6.387477166388046e-34,0.03064457190329302
195.0,6.383401828786807e-34,0.059720352739756434
196.0,6.379155347719599e-34,0.09533578505558074
197.0,6.374820798196061e-34,0.08368844893240149
198.0,6.370515557001724e-34,0.05909174605868427
199.0,6.366283340481779e-34,0.019495776730315353
200.0,6.361997898656116e-34,0.02007269449908991
201.0,6.357511650261254e-34,0.02551990709953222
202.0,6.35320017067421e-34,0.00826087856648098
203.0,6.348819036980097e-34,0.09504537398323083
204.0,6.3443376032385254e-34,0.012635893450903475
205.0,6.3397381072297284e-34,0.1018756239140875
206.0,6.334761841787725e-34,0.08167009471533998
207.0,6.32951331587056e-34,0.004954387066129454
208.0,6.323975334460393e-34,0.011070715676581605
209.0,6.31834125058568e-34,0.062089636931885364
210.0,6.312730843571e-34,0.07161355422672797
211.0,6.307141941079431e-34,0.04055404871048898
212.0,6.3017861060080765e-34,0.031186781298202355
213.0,6.296660510218516e-34,0.04300148728397277
214.0,6.291740322186768e-34,0.048109786334810285
215.0,6.2870477946497675e-34,0.007349924739674838
216.0,6.2825167126451015e-34,0.03975507054120785
217.0,6.278080656769632e-34,0.061759909852020324
218.0,6.2737166498109164e-34,0.015944333272849463
219.0,6.269248841167938e-34,0.052204521017657636
220.0,6.264831721140566e-34,0.04823467811028008
221.0,6.260274087822542e-34,0.021145517454056947
222.0,6.255832354505534e-34,0.024823613556961457
223.0,6.251404145789296e-34,0.00765665883928093
224.0,6.247047919075241e-34,0.13985769370483345
225.0,6.242860105869313e-34,0.01639322060350112
226.0,6.238915792487884e-34,0.02650322379482281
227.0,6.2348933226542535e-34,0.056910717945986844
228.0,6.230907939395134e-34,0.06396981225136887
229.0,6.227117105590329e-34,0.012655580289924135
230.0,6.22314660985796e-34,0.04191551388747171
231.0,6.219232329178707e-34,0.10073852912346498
232.0,6.214958010928718e-34,0.03073795584859672
233.0,6.210377078868145e-34,0.01250686065518384
234.0,6.205604736043017e-34,0.08399077977669292
235.0,6.200382845364476e-34,0.05839766587970217
236.0,6.194747376935259e-34,0.09552497491128717
237.0,6.18859004320265e-34,0.036675113296915605
238.0,6.182386193510379e-34,0.031214783252034414
239.0,6.176072721364967e-34,0.009986209429048896
240.0,6.1698095627367245e-34,0.03290430106428959
241.0,6.163569410473984e-34,0.1771901600180295
242.0,6.157357483794199e-34,0.11151131258650687
243.0,6.150950590066273e-34,0.01311994020600372
244.0,6.144458506857993e-34,0.021318342267777873
245.0,6.1377818191269875e-34,0.025811440486351003
246.0,6.1311576122246585e-34,0.0455805975825142
247.0,6.124731016475128e-34,0.03768900466679506
248.0,6.11869098610762e-34,0.04073782158213848
249.0,6.113085821470306e-34,0.10137608588987282
250.0,6.107758093524525e-34,0.05234585242586818
251.0,6.102566751416834e-34,0.0022382413943923154
252.0,6.097717275278602e-34,0.020333358082972024
253.0,6.093160401618526e-34,0.07287147745583003
254.0,6.088542663338222e-34,0.027557155992440897
255.0,6.084079971249354e-34,0.005322644492033367
256.0,6.07986163838357e-34,0.11043083326350792
257.0,6.075822518991899e-34,0.051344700515858877
258.0,6.071937741382249e-34,0.03288872338297749
259.0,6.06809701636329e-34,0.007763630659142927
260.0,6.0641313489998985e-34,0.0032653880333878174
261.0,6.060309155556711e-34,0.041547942560682005
262.0,6.056498645231433e-34,0.013600571564586071
263.0,6.0527050513616725e-34,0.021240619511958974
264.0,6.049261260797409e-34,0.02260631399539717
265.0,6.046134976000562e-34,0.091063498535632
266.0,6.043344765213343e-34,0.013552746203915056
267.0,6.040883195399968e-34,0.13368901371877617
268.0,6.038985017858005e-34,0.043138223822759496
269.0,6.0377789827464645e-34,0.0207028840382769
270.0,6.037240772792438e-34,0.036526746025814245
271.0,6.03735331859718e-34,0.055047887705247614
272.0,6.037653359459714e-34,0.00202936381039272
273.0,6.038285802435862e-34,0.08634085259785595
274.0,6.039128443064962e-34,0.04889014236771342
275.0,6.040148210989872e-34,0.016166170406493232
276.0,6.041465311237795e-34,0.05804326510207091
277.0,6.042514363334672e-34,0.0005316189201568986
278.0,6.0434551286499615e-34,0.001069202002192365
279.0,6.04437033292681e-34,0.026686030076911862
280.0,6.045152471143685e-34,0.026518402209866718
281.0,6.045621041949306e-34,0.09048503730935946
282.0,6.046078552105067e-34,0.053320356115012624
283.0,6.046510772860952e-34,0.0010045790063187667
284.0,6.046757016299991e-34,0.0404612949850556
285.0,6.0469881022764065e-34,0.03208901544538161
286.0,6.047328861777297e-34,0.011235347002423662
287.0,6.047720181178498e-34,0.013637482526230541
288.0,6.0483174103372115e-34,0.0008680182065514092
289.0,6.049069813882313e-34,0.053563439960959906
290.0,6.04990524111717e-34,0.011256294504127445
291.0,6.050648018533985e-34,0.0023569722637581964
292.0,6.051369765618481e-34,0.002219823082190518
293.0,6.052089324127628e-34,0.036509635039358605
294.0,6.052936653752778e-34,0.016638310998188844
295.0,6.053822679827629e-34,0.008349467800582043
296.0,6.054856140987816e-34,0.004502414672746074
297.0,6.0558349377535005e-34,0.009395116687190633
298.0,6.0567135901318e-34,0.057568660660352704
299.0,6.057533691732252e-34,0.018081385740368213
300.0,6.05811547147307e-34,0.08291600740925757
301.0,6.058701984707832e-34,0.009487502102647333
302.0,6.059304831983333e-34,0.10254511582931952
303.0,6.059952695598474e-34,0.0719568383893496
304.0,6.060700520734044e-34,0.017998494952620226
305.0,6.061873617339085e-34,0.03495451169357581
306.0,6.063207095167049e-34,0.06745517128096896
307.0,6.064370606771393e-34,0.05448965978746234
308.0,6.065582114207906e-34,0.10353038229530409
309.0,6.066775427416909e-34,0.03556002248349804
310.0,6.067849009805084e-34,0.0018753361814956371
311.0,6.068683231019908e-34,0.03201869770124902
312.0,6.069302735776662e-34,0.020298298645769465
313.0,6.069793811891037e-34,0.03235081955632015
314.0,6.070075931467025e-34,0.09251574807840104
315.0,6.070641874534716e-34,0.08424619407427558
316.0,6.071134147640688e-34,0.0653292245895966
317.0,6.071545428629157e-34,0.053334577747901624
318.0,6.071565610310425e-34,0.04973219250131173
319.0,6.071441701372227e-34,0.03154865737069133
320.0,6.070789006310665e-34,0.0124069444448326
321.0,6.069717129193094e-34,0.030093819605153962
322.0,6.068255977234832e-34,0.10637264981909123
323.0,6.066363067829312e-34,0.02362918969987704
324.0,6.064468816544338e-34,0.06693548513287688
325.0,6.062648756218468e-34,0.01810098701491641
326.0,6.061105293971597e-34,0.020696229861171866
327.0,6.059611609402801e-34,0.029003644801721514
328.0,6.058459722970265e-34,0.004711703544606374
329.0,6.057612262819242e-34,0.016049506695316858
330.0,6.057130249285345e-34,0.00444692581754448
331.0,6.057088305992625e-34,0.057061441209470945
332.0,6.057203865508209e-34,0.11643152543384422
333.0,6.05745929311054e-34,0.1009011469815349
334.0,6.058002837697203e-34,0.036795528676511355
335.0,6.058267921288942e-34,0.021806451598849586
336.0,6.058748819184305e-34,0.019679954985951608
337.0,6.059377000833796e-34,0.049626668698740384
338.0,6.060100976081246e-34,0.025605331183495894
339.0,6.060970804018693e-34,0.052769452510910635
340.0,6.061786945132145e-34,0.000884767053026633
341.0,6.062572811438331e-34,0.10905378040816693
342.0,6.06352946768771e-34,0.023112265067686304
343.0,6.0647668758711445e-34,0.012702638223556814
344.0,6.066636069828214e-34,0.037983245850625645
345.0,6.068884790500435e-34,0.002906660838820937
346.0,6.071406846237686e-34,0.08973595770636116
347.0,6.074136106681153e-34,0.051352480276624105
348.0,6.076880682595656e-34,0.061606124333172085
349.0,6.0796602516041555e-34,0.01844654417161719
350.0,6.082503619856207e-34,0.03119434529066897
351.0,6.085350945389562e-34,0.00863603190193374
352.0,6.088397494492863e-34,0.14423732774295536
353.0,6.0915047101140175e-34,0.013102653001292092
354.0,6.094641757931448e-34,0.04744827008125704
355.0,6.097733579608051e-34,0.018913181191977615
356.0,6.100541755169274e-34,0.012633995449404198
357.0,6.102938590773734e-34,0.05470039818758966
358.0,6.104860764799178e-34,0.052001853460194564
359.0,6.106645629442716e-34,0.022695514729889572
360.0,6.108351216051557e-34,0.07452136277744197
361.0,6.110183453300242e-34,0.017636126064821036
362.0,6.1118400346288155e-34,0.06313086143590169
363.0,6.11314698403436e-34,0.04335285817157494
364.0,6.114176912781939e-34,0.016668324291149946
365.0,6.115009924201427e-34,0.01865014797508097
366.0,6.115722197800413e-34,0.010129523313976384
367.0,6.116476864769394e-34,0.01663123240781821
368.0,6.117264640187896e-34,0.06485823458376035
369.0,6.118391182473372e-34,0.04827997455061736
370.0,6.119666140659862e-34,0.006895147138224519
371.0,6.1209561526332e-34,0.035514324023971665
372.0,6.122038142151123e-34,0.04459405206458125
373.0,6.1228897282113465e-34,0.04985273725485312
374.0,6.123613515758523e-34,0.07115402575064579
375.0,6.124035928528293e-34,0.04081059337834303
376.0,6.124422264462332e-34,0.038881079083329086
377.0,6.124951085649941e-34,0.009845714739403792
378.0,6.125117024475885e-34,0.06587037354624237
379.0,6.125319801687368e-34,0.029220550481396004
380.0,6.125099236754289e-34,0.1233672224535801
381.0,6.12474721727855e-34,0.025835086584596073
382.0,6.1244439475680415e-34,0.034030688100921185
383.0,6.124113738742884e-34,0.05741775022498124
384.0,6.1235701834726736e-34,0.05200946884296401
385.0,6.1228558728644725e-34,0.08728125879060256
386.0,6.1219809664408e-34,0.08423430688966356
387.0,6.1209434949644864e-34,0.0531109168227247
388.0,6.119740355205636e-34,0.0037777529422797296
389.0,6.118402581487725e-34,0.030256724571000572
390.0,6.11701305609384e-34,0.07299919916664932
391.0,6.115379825588862e-34,0.09118113998716376
392.0,6.11360207920462e-34,0.004605981609104605
393.0,6.111975299047285e-34,0.016787666812560827
394.0,6.110305998745138e-34,0.029670099281783352
395.0,6.1085806251905615e-34,0.018653032529852658
396.0,6.10703957561641e-34,0.004114285542455776
397.0,6.105152537418899e-34,0.033262662306527205
398.0,6.103372920000289e-34,0.04736525032589685
399.0,6.101476986888268e-34,0.005382016968847748
400.0,6.099569231284207e-34,0.005913335245417648
401.0,6.097667817444703e-34,0.08234731999913347
402.0,6.0959441566151265e-34,0.05449588074155516
403.0,6.094279401377395e-34,0.03578436921220631
404.0,6.092595878230925e-34,0.029307960252580097
405.0,6.091175865523578e-34,0.04025137922959304
406.0,6.089488307499705e-34,0.08997160574566522
407.0,6.087763153866612e-34,0.02929358950549002
408.0,6.085759673536807e-34,0.05976651349262783
409.0,6.083482869859366e-34,0.042960637841134686
410.0,6.081361478920711e-34,0.02704557810137749
411.0,6.079227961301506e-34,0.029308717339744862
412.0,6.07716984756629e-34,0.046061948312213295
