time,flux [mJy],error
0.0,6.695592366914633e-34,0.009974423110754091
1.0,6.6993337912075366e-34,0.04415608373767523
2.0,6.702911091953888e-34,0.009915433322799998
3.0,6.70627347744938e-34,0.06315447081509198
4.0,6.7094621163316695e-34,0.027781340512698767
5.0,6.71238716854388e-34,0.048497599149876974
6.0,6.715245329858942e-34,0.006721953522568946
7.0,6.717817109034229e-34,0.02669455477077833
8.0,6.720045311683299e-34,0.04215836410572292
9.0,6.721963359074797e-34,0.012929686621565345
10.0,6.723540140105477e-34,0.025071172036361694
11.0,6.7250797213391944e-34,0.04598346086328811
12.0,6.726585675961532e-34,0.03397263084677438
13.0,6.728032151536649e-34,0.023385669173956184
14.0,6.729271741689037e-34,0.01790015289074746
15.0,6.730511322091873e-34,0.050238915544522644
16.0,6.7315446887809266e-34,0.021230250595577448
17.0,6.732232378594785e-34,0.04445468579809457
18.0,6.732838678924367e-34,0.00937898934018102
19.0,6.733316342312971e-34,0.06840459297135534
20.0,6.73378249465593e-34,0.1246855166254842
21.0,6.734230693705367e-34,0.010325347723440154
22.0,6.734765626423375e-34,0.017064992284978247
23.0,6.735240086887542e-34,0.04637732085272475
24.0,6.7355590079641945e-34,0.03199650099240741
25.0,6.7358760821794295e-34,0.05163470862493156
26.0,6.7360196267326505e-34,0.063157920298009
27.0,6.7359520773030145e-34,0.03528963204624219
28.0,6.735658230505522e-34,0.01066141172651541
29.0,6.735174190185701e-34,0.006749600896931485
30.0,6.734459446367227e-34,0.0038363956070926806
31.0,6.733374648679815e-34,0.0009011911339825636
32.0,6.731956853644351e-34,0.04583935995929493
33.0,6.729977525088239e-34,0.06482622949794163
34.0,6.727711661089409e-34,0.024984240676906633
35.0,6.724929302768641e-34,0.007618918324444288
36.0,6.721648244488755e-34,0.06797843644936935
37.0,6.717999454287161e-34,0.028082978734071225
38.0,6.71392624353438e-34,0.0646111658955064
39.0,6.70974240078035e-34,0.010337230351184234
40.0,6.705215097923161e-34,0.004777398404261152
41.0,6.700531781492087e-34,0.05204058845355136
42.0,6.6957063489732085e-34,0.011300803982045957
43.0,6.6906193448156275e-34,0.07604643145764153
44.0,6.685452249929951e-34,0.03925238307343733
45.0,6.680160224846522e-34,0.061644144705769614
46.0,6.674880127961541e-34,0.022889320779966593
47.0,6.669685474245438e-34,0.05447369528078497
48.0,6.664826928523774e-34,0.027106387201114357
49.0,6.660341786061004e-34,0.09094104988485271
50.0,6.65609382298933e-34,0.02176525177796795
51.0,6.6520673819939375e-34,0.052267080526066045
52.0,6.648393102687793e-34,0.04667320041561885
53.0,6.645038082502289e-34,0.0431303266745998
54.0,6.642007400697461e-34,0.05714397988326447
55.0,6.639009130936845e-34,0.02092063367525121
56.0,6.6361258495210355e-34,0.04271267048471411
57.0,6.633221506576398e-34,0.013931172693832324
58.0,6.6303631832655935e-34,0.1133370908048482
59.0,6.627505802013137e-34,0.0671145920565369
60.0,6.62478478155314e-34,0.0018273711726673474
61.0,6.6221856399077485e-34,0.03199883507974937
62.0,6.619802677863348e-34,0.013826684472305884
63.0,6.617515092604131e-34,0.031203961721654384
64.0,6.61522068661085e-34,0.04709557180597783
65.0,6.6129101122105115e-34,0.06095158072143182
66.0,6.610587275516399e-34,0.04770256388547039
67.0,6.6082936807849305e-34,0.09074689875881878
68.0,6.60630641658306e-34,0.029400737063494567
69.0,6.604466790306175e-34,0.026145241257078823
70.0,6.602664288178187e-34,0.09117455694643306
71.0,6.600915393152269e-34,0.028993918042943045
72.0,6.599160448489063e-34,0.02009749380676858
73.0,6.597475044278027e-34,0.12353077627021017
74.0,6.5956041899795895e-34,0.11038062995002221
75.0,6.593665699576223e-34,0.003665423019881084
76.0,6.591673559961574e-34,0.042453713829994154
77.0,6.589654640404835e-34,0.009488416999334448
78.0,6.5875271381128775e-34,0.004540171951012161
79.0,6.585319451848008e-34,0.06842199998405031
80.0,6.582869833796459e-34,0.01964247273081421
81.0,6.580228407721252e-34,0.07546934690643593
82.0,6.577367091926168e-34,0.046761731734469056
83.0,6.574397286691904e-34,0.08409323061773863
84.0,6.571156109616257e-34,0.015280636105272197
85.0,6.567860854912352e-34,0.04932245444475542
86.0,6.56467736458531e-34,0.006336649424936125
87.0,6.561249048446484e-34,0.17147789887615617
88.0,6.557811215350012e-34,0.041899885728252095
89.0,6.554429938837815e-34,0.011822811135374445
90.0,6.550980385080286e-34,0.000734348952635993
91.0,6.547470041215125e-34,0.014513580012144473
92.0,6.543916087932348e-34,0.01860520827421907
93.0,6.540292315087309e-34,0.026109719424360158
94.0,6.536584115011028e-34,0.005073482186202187
95.0,6.53259747284007e-34,0.0009655779141134575
96.0,6.528621410502287e-34,0.007368371733247822
97.0,6.5247288020965064e-34,0.07747232322281755
98.0,6.520760320846937e-34,0.026995187526778854
99.0,6.516609342799408e-34,0.0012331430582634998
100.0,6.5124646801468e-34,0.10358921008537372
101.0,6.508211744817983e-34,0.05364848853330069
102.0,6.503921231528684e-34,0.059243286712493376
103.0,6.499551160969516e-34,0.021924034734224676
104.0,6.495234806964606e-34,0.06554297771677303
105.0,6.491031238092922e-34,0.04076379066057885
106.0,6.486811204948209e-34,0.007063689004706825
107.0,6.482457646017994e-34,0.07570564737612591
108.0,6.477862406047054e-34,0.008193428324910759
109.0,6.473219294737219e-34,0.04292843508723899
110.0,6.468330720132357e-34,0.05536169916907331
111.0,6.463240959446176e-34,0.04271770137113373
112.0,6.45793448026394e-34,0.053480739603967854
113.0,6.452478914675124e-34,0.009811151761193368
114.0,6.4466529671984495e-34,0.005832611950173745
115.0,6.440660664047309e-34,0.021143035560036293
116.0,6.434591283928693e-34,0.01938240349226786
117.0,6.42846135854404e-34,0.014314413845505115
118.0,6.422267940191115e-34,0.04858300269613362
119.0,6.416082105245141e-34,0.0541222347466209
120.0,6.409972208476805e-34,0.025262329334307873
121.0,6.403554464759554e-34,0.002502089691779761
122.0,6.39730433564115e-34,0.05245595772405546
123.0,6.391133308718814e-34,0.04284120213711818
124.0,6.384950501016554e-34,0.03247566711036292
125.0,6.378775969774986e-34,0.018357628908496484
126.0,6.372717396245131e-34,0.0009320994687144779
127.0,6.366730712821558e-34,0.07579375608443707
128.0,6.360563395895499e-34,0.002293002043436154
129.0,6.354646978152729e-34,0.021588939195947447
130.0,6.348817419065362e-34,0.002754731445751459
131.0,6.343237768808899e-34,0.04372493036871543
132.0,6.337753107638826e-34,0.008188614873842008
133.0,6.332626869354377e-34,0.05960643947947987
134.0,6.327777754716345e-34,0.028625447807718314
135.0,6.323260647608981e-34,0.08198475449351297
136.0,6.31887831268326e-34,0.009678054652950394
137.0,6.314851476555945e-34,0.0907089956755519
138.0,6.311154889536584e-34,0.027622520388686563
139.0,6.307894113460217e-34,0.0011242231664516655
140.0,6.304871231443635e-34,0.08512949199249054
141.0,6.30204890407765e-34,0.05969581704908618
142.0,6.299736173725471e-34,0.003059150257073446
143.0,6.2975913807801305e-34,0.022788669505403467
144.0,6.295655265553969e-34,0.09026968923024324
145.0,6.29406154271915e-34,0.005442195018091708
146.0,6.292712968885819e-34,0.06934673671478045
147.0,6.291661675280121e-34,0.06778666998489287
148.0,6.2907898378114325e-34,0.13288808460511406
149.0,6.290151838496082e-34,0.028105058492044307
150.0,6.2895188241483175e-34,0.07724979168054025
151.0,6.289182696359477e-34,0.07173496601428758
152.0,6.288984454401194e-34,0.08372943828994
153.0,6.28883540108196e-34,0.03543522052282821
154.0,6.288863742670275e-34,0.05702897172993481
155.0,6.28894342542569e-34,0.042341055710323795
156.0,6.288917044658858e-34,0.03129851323103874
157.0,6.288689340060764e-34,0.05006673317476589
158.0,6.288437972096576e-34,0.04132448950245831
159.0,6.2880898314817105e-34,0.0005371218448908432
160.0,6.287655783084888e-34,0.0018875073804493028
161.0,6.287312312910163e-34,0.08179401752571301
162.0,6.286849249774483e-34,0.007961255146303225
163.0,6.28626888538976e-34,0.06457466169557617
164.0,6.2855745195329535e-34,0.021339304641008805
165.0,6.284807755116885e-34,0.002957021292513477
166.0,6.283963561004417e-34,0.018811276023880483
167.0,6.283021280187128e-34,0.035019429219563886
168.0,6.282009636680776e-34,0.015374672243998242
169.0,6.280931611006654e-34,0.10194986076733155
170.0,6.2797114068408285e-34,0.05059676249817498
171.0,6.278303955928651e-34,0.04113132409399607
172.0,6.276816830570495e-34,0.009821358464215267
173.0,6.275123523651171e-34,0.03388064591051215
174.0,6.273156292316583e-34,0.09683178775870126
175.0,6.270977031129017e-34,0.013512958342762189
176.0,6.268606274009105e-34,0.039719471595303174
177.0,6.266384154363568e-34,0.025807683705045978
178.0,6.264083090855465e-34,0.04763769864372134
179.0,6.261920794503037e-34,0.007758225795357296
180.0,6.259945389098499e-34,0.01849180563171666
181.0,6.257950391426268e-34,0.025650623340033752
182.0,6.256122442813373e-34,0.08482282197883625
183.0,6.254229452461639e-34,0.020329038914708133
184.0,6.251991811367423e-34,0.06380186046602403
185.0,6.249673530306998e-34,0.0628384397403753
186.0,6.2469874303263575e-34,0.0048341715686677205
187.0,6.244142477469659e-34,0.025381696931802575
188.0,6.241042747905132e-34,0.01894951029675905
189.0,6.238004105279086e-34,0.043576565008249114
190.0,6.2350917268017675e-34,0.07760827474460795
191.0,6.232212244695355e-34,0.112696908596473
192.0,6.229334323677792e-34,0.05364305665546844
193.0,6.226348978715958e-34,0.061874501003430005
194.0,6.223272454147507e-34,0.03064457190329302
195.0,6.220087466484779e-34,0.059720352739756434
196.0,6.216768725528213e-34,0.09533578505558074
197.0,6.21338115666723e-34,0.08368844893240149
198.0,6.210016493066143e-34,0.05909174605868427
199.0,6.206708900242932e-34,0.019495776730315353
200.0,6.20335971038933e-34,0.02007269449908991
201.0,6.199853584716398e-34,0.02551990709953222
202.0,6.196484045640994e-34,0.00826087856648098
203.0,6.193060069978151e-34,0.09504537398323083
204.0,6.18955770708829e-34,0.012635893450903475
205.0,6.1859630753114446e-34,0.1018756239140875
206.0,6.1820739879302116e-34,0.08167009471533998
207.0,6.177972121550211e-34,0.004954387066129454
208.0,6.173644037795276e-34,0.011070715676581605
209.0,6.169240847339035e-34,0.062089636931885364
210.0,6.164856160995698e-34,0.07161355422672797
211.0,6.16048828102462e-34,0.04055404871048898
212.0,6.156302549609219e-34,0.031186781298202355
213.0,6.152296756482064e-34,0.04300148728397277
214.0,6.148451495128831e-34,0.048109786334810285
215.0,6.144784156671322e-34,0.007349924739674838
216.0,6.141242992307594e-34,0.03975507054120785
217.0,6.1377760934596935e-34,0.061759909852020324
218.0,6.13436550280842e-34,0.015944333272849463
219.0,6.130873788305311e-34,0.052204521017657636
220.0,6.127421688339975e-34,0.04823467811028008
221.0,6.123859773399546e-34,0.021145517454056947
222.0,6.12038843747599e-34,0.024823613556961457
223.0,6.116927671397393e-34,0.00765665883928093
224.0,6.113523161219858e-34,0.13985769370483345
225.0,6.110250270799531e-34,0.01639322060350112
226.0,6.107167682143817e-34,0.02650322379482281
227.0,6.104024012085682e-34,0.056910717945986844
228.0,6.100909326198634e-34,0.06396981225136887
229.0,6.0979466860247035e-34,0.012655580289924135
230.0,6.094843635146499e-34,0.04191551388747171
231.0,6.091784517867948e-34,0.10073852912346498
232.0,6.088444021392601e-34,0.03073795584859672
233.0,6.084863897848411e-34,0.01250686065518384
234.0,6.081134181562889e-34,0.08399077977669292
235.0,6.077053131349476e-34,0.05839766587970217
236.0,6.072648858826069e-34,0.09552497491128717
237.0,6.06783673431209e-34,0.036675113296915605
238.0,6.0629882563049445e-34,0.031214783252034414
239.0,6.058054105356076e-34,0.009986209429048896
240.0,6.053159275795307e-34,0.03290430106428959
241.0,6.04828242633765e-34,0.1771901600180295
242.0,6.04342763594412e-34,0.11151131258650687
243.0,6.0384204734764875e-34,0.01311994020600372
244.0,6.033346733102809e-34,0.021318342267777873
245.0,6.028128719251718e-34,0.025811440486351003
246.0,6.022951720601874e-34,0.0455805975825142
247.0,6.017929160466151e-34,0.03768900466679506
248.0,6.013208711736415e-34,0.04073782158213848
249.0,6.0088281224541984e-34,0.10137608588987282
250.0,6.004664357525245e-34,0.05234585242586818
251.0,6.000607181854458e-34,0.0022382413943923154
252.0,5.996817183777668e-34,0.020333358082972024
253.0,5.993255862530677e-34,0.07287147745583003
254.0,5.9896469739203196e-34,0.027557155992440897
255.0,5.986159258144018e-34,0.005322644492033367
256.0,5.982862515775798e-34,0.11043083326350792
257.0,5.979705833633233e-34,0.051344700515858877
258.0,5.976669773809522e-34,0.03288872338297749
259.0,5.973668142288837e-34,0.007763630659142927
260.0,5.970568864912885e-34,0.0032653880333878174
261.0,5.967581716324898e-34,0.041547942560682005
262.0,5.964603698412709e-34,0.013600571564586071
263.0,5.96163890117262e-34,0.021240619511958974
264.0,5.95894748477147e-34,0.02260631399539717
265.0,5.956504207800967e-34,0.091063498535632
266.0,5.954323581849634e-34,0.013552746203915056
267.0,5.952399797796957e-34,0.13368901371877617
268.0,5.950916320194761e-34,0.043138223822759496
269.0,5.9499737708094285e-34,0.0207028840382769
270.0,5.949553145027896e-34,0.036526746025814245
271.0,5.949641102648753e-34,0.055047887705247614
272.0,5.949875592779139e-34,0.00202936381039272
273.0,5.950369864241656e-34,0.08634085259785595
274.0,5.951028410911993e-34,0.04889014236771342
275.0,5.951825387402651e-34,0.016166170406493232
276.0,5.95285473722607e-34,0.05804326510207091
277.0,5.953674600097087e-34,0.0005316189201568986
278.0,5.954409833890187e-34,0.001069202002192365
279.0,5.9551250910334854e-34,0.026686030076911862
280.0,5.955736353415904e-34,0.026518402209866718
281.0,5.956102554300602e-34,0.09048503730935946
282.0,5.956460110985287e-34,0.053320356115012624
283.0,5.956797903313131e-34,0.0010045790063187667
284.0,5.956990349287453e-34,0.0404612949850556
285.0,5.9571709492906745e-34,0.03208901544538161
286.0,5.9574372621492626e-34,0.011235347002423662
287.0,5.957743088951103e-34,0.013637482526230541
288.0,5.958209839853347e-34,0.0008680182065514092
289.0,5.958797863777503e-34,0.053563439960959906
290.0,5.9594507729831885e-34,0.011256294504127445
291.0,5.960031273825129e-34,0.0023569722637581964
292.0,5.960595338887868e-34,0.002219823082190518
293.0,5.9611576935191875e-34,0.036509635039358605
294.0,5.961819904768028e-34,0.016638310998188844
295.0,5.962512358349395e-34,0.008349467800582043
296.0,5.963320036477485e-34,0.004502414672746074
297.0,5.964084992887986e-34,0.009395116687190633
298.0,5.964771683724068e-34,0.057568660660352704
299.0,5.965412615527811e-34,0.018081385740368213
300.0,5.965867292287932e-34,0.08291600740925757
301.0,5.9663256684028755e-34,0.009487502102647333
302.0,5.9667968100168604e-34,0.10254511582931952
303.0,5.96730313313e-34,0.0719568383893496
304.0,5.967887578902037e-34,0.017998494952620226
305.0,5.96880438594475e-34,0.03495451169357581
306.0,5.9698465352943625e-34,0.06745517128096896
307.0,5.9707558513971935e-34,0.05448965978746234
308.0,5.971702677553982e-34,0.10353038229530409
309.0,5.9726352844249534e-34,0.03556002248349804
310.0,5.973474318388721e-34,0.0018753361814956371
311.0,5.974126285056806e-34,0.03201869770124902
312.0,5.974610444947428e-34,0.020298298645769465
313.0,5.974994234345702e-34,0.03235081955632015
314.0,5.975214718501091e-34,0.09251574807840104
315.0,5.9756570184685475e-34,0.08424619407427558
316.0,5.976041743348454e-34,0.0653292245895966
317.0,5.9763631706760425e-34,0.053334577747901624
318.0,5.976378943211263e-34,0.04973219250131173
319.0,5.976282104991199e-34,0.03154865737069133
320.0,5.9757720059707e-34,0.0124069444448326
321.0,5.974934304722492e-34,0.030093819605153962
322.0,5.973792374552334e-34,0.10637264981909123
323.0,5.972313014142681e-34,0.02362918969987704
324.0,5.9708326050175784e-34,0.06693548513287688
325.0,5.969410178153715e-34,0.01810098701491641
326.0,5.968203920244511e-34,0.020696229861171866
327.0,5.967036564950516e-34,0.029003644801721514
328.0,5.966136334237023e-34,0.004711703544606374
329.0,5.965474020978645e-34,0.016049506695316858
330.0,5.965097314234581e-34,0.00444692581754448
331.0,5.9650645344055405e-34,0.057061441209470945
332.0,5.965154847323747e-34,0.11643152543384422
333.0,5.96535447097257e-34,0.1009011469815349
334.0,5.965779265915237e-34,0.036795528676511355
335.0,5.9659864359835585e-34,0.021806451598849586
336.0,5.966362270825633e-34,0.019679954985951608
337.0,5.966853211944958e-34,0.049626668698740384
338.0,5.967419018377914e-34,0.025605331183495894
339.0,5.968098812672409e-34,0.052769452510910635
340.0,5.968736649247372e-34,0.000884767053026633
341.0,5.969350825233429e-34,0.10905378040816693
342.0,5.970098478225617e-34,0.023112265067686304
343.0,5.971065546523664e-34,0.012702638223556814
344.0,5.9725263726625105e-34,0.037983245850625645
345.0,5.9742838092969056e-34,0.002906660838820937
346.0,5.976254864751406e-34,0.08973595770636116
347.0,5.9783878563440956e-34,0.051352480276624105
348.0,5.980532817395777e-34,0.061606124333172085
349.0,5.982705126506336e-34,0.01844654417161719
350.0,5.984927296468555e-34,0.03119434529066897
351.0,5.987152559154215e-34,0.00863603190193374
352.0,5.989533520502045e-34,0.14423732774295536
353.0,5.991961894390826e-34,0.013102653001292092
354.0,5.994413582955931e-34,0.04744827008125704
355.0,5.996829926056523e-34,0.018913181191977615
356.0,5.999024591969489e-34,0.012633995449404198
357.0,6.000897784469534e-34,0.05470039818758966
358.0,6.002400015979089e-34,0.052001853460194564
359.0,6.0037949364557574e-34,0.022695514729889572
360.0,6.005127898982647e-34,0.07452136277744197
361.0,6.006559842444331e-34,0.017636126064821036
362.0,6.007854506005998e-34,0.06313086143590169
363.0,6.008875922668805e-34,0.04335285817157494
364.0,6.009680840119945e-34,0.016668324291149946
365.0,6.010331861299927e-34,0.01865014797508097
366.0,6.01088852257495e-34,0.010129523313976384
367.0,6.011478315426699e-34,0.01663123240781821
368.0,6.012093983436183e-34,0.06485823458376035
369.0,6.012974407006415e-34,0.04827997455061736
370.0,6.013970821657615e-34,0.006895147138224519
371.0,6.014979001254468e-34,0.035514324023971665
372.0,6.015824605619793e-34,0.04459405206458125
373.0,6.016490143388919e-34,0.04985273725485312
374.0,6.017055803128984e-34,0.07115402575064579
375.0,6.01738593024775e-34,0.04081059337834303
376.0,6.017687862333869e-34,0.038881079083329086
377.0,6.018101150537971e-34,0.009845714739403792
378.0,6.0182308362634525e-34,0.06587037354624237
379.0,6.018389312193559e-34,0.029220550481396004
380.0,6.018216934673113e-34,0.1233672224535801
381.0,6.017941821836589e-34,0.025835086584596073
382.0,6.017704808273306e-34,0.034030688100921185
383.0,6.017446741056021e-34,0.05741775022498124
384.0,6.01702193776387e-34,0.05200946884296401
385.0,6.016463684510499e-34,0.08728125879060256
386.0,6.015779921240288e-34,0.08423430688966356
387.0,6.014969108940594e-34,0.0531109168227247
388.0,6.014028822352481e-34,0.0037777529422797296
389.0,6.012983315647522e-34,0.030256724571000572
390.0,6.011897363594071e-34,0.07299919916664932
391.0,6.010620949338928e-34,0.09118113998716376
392.0,6.00923159197635e-34,0.004605981609104605
393.0,6.007960218844095e-34,0.016787666812560827
394.0,6.006655615057133e-34,0.029670099281783352
395.0,6.005307188491625e-34,0.018653032529852658
396.0,6.004102816152059e-34,0.004114285542455776
397.0,6.002628044251851e-34,0.033262662306527205
398.0,6.001237224624803e-34,0.04736525032589685
399.0,5.999755501105921e-34,0.005382016968847748
400.0,5.998264537986549e-34,0.005913335245417648
401.0,5.99677853112942e-34,0.08234731999913347
402.0,5.995431443105286e-34,0.05449588074155516
403.0,5.9941303914103235e-34,0.03578436921220631
404.0,5.9928146720819924e-34,0.029307960252580097
405.0,5.99170489336024e-34,0.04025137922959304
406.0,5.990386020664996e-34,0.08997160574566522
407.0,5.989037765974135e-34,0.02929358950549002
408.0,5.987471991366651e-34,0.05976651349262783
409.0,5.9856926070965235e-34,0.042960637841134686
410.0,5.984034682127219e-34,0.02704557810137749
411.0,5.982367279825796e-34,0.029308717339744862
412.0,5.980758807719544e-34,0.046061948312213295
413.0,5.978982819842645e-34,0.029403285498515654
